#    s        x        y     Ue/Vinf    Dstar     Theta      Cf       H
   0.00000  1.00000  0.00000  0.90276  0.041702  0.014278  0.000212     2.921
   0.00668  0.99360  0.00192  0.90694  0.039061  0.013960  0.000282     2.798
   0.01807  0.98272  0.00530  0.91354  0.036394  0.013486  0.000353     2.699
   0.03106  0.97032  0.00914  0.92182  0.033645  0.012929  0.000437     2.602
   0.04516  0.95680  0.01317  0.93144  0.031080  0.012327  0.000524     2.521
   0.06006  0.94246  0.01720  0.94197  0.028836  0.011715  0.000606     2.461
   0.07565  0.92739  0.02118  0.95313  0.026942  0.011113  0.000673     2.424
   0.09186  0.91167  0.02516  0.96484  0.025348  0.010524  0.000720     2.409
   0.10852  0.89549  0.02915  0.97716  0.023985  0.009945  0.000746     2.412
   0.12544  0.87905  0.03313  0.99004  0.022836  0.009379  0.000748     2.435
   0.14250  0.86245  0.03708  1.00354  0.021890  0.008824  0.000721     2.481
   0.15964  0.84577  0.04099  1.01781  0.021136  0.008273  0.000663     2.555
   0.17681  0.82904  0.04484  1.03318  0.020561  0.007716  0.000572     2.665
   0.19398  0.81229  0.04864  1.05010  0.020155  0.007140  0.000448     2.823
   0.21115  0.79553  0.05238  1.06931  0.019906  0.006526  0.000318     3.050
   0.22833  0.77875  0.05606  1.09179  0.019785  0.005854  0.000165     3.380
   0.24546  0.76200  0.05967  1.11907  0.019745  0.005094 -0.000013     3.876
   0.26249  0.74535  0.06319  1.15186  0.019743  0.004253 -0.000167     4.643
   0.27941  0.72877  0.06660  1.18717  0.019756  0.003422 -0.000240     5.773
   0.29629  0.71222  0.06990  1.22725  0.019674  0.002563 -0.000301     7.676
   0.31313  0.69568  0.07308  1.27248  0.019357  0.001691 -0.000444    11.445
   0.32994  0.67915  0.07616  1.27355  0.019099  0.001675 -0.000449    11.405
   0.34670  0.66266  0.07911  1.27446  0.018564  0.001661 -0.000454    11.176
   0.36339  0.64620  0.08193  1.27531  0.017853  0.001649 -0.000459    10.825
   0.38005  0.62976  0.08462  1.27614  0.017025  0.001638 -0.000465    10.394
   0.39672  0.61329  0.08718  1.27699  0.016117  0.001627 -0.000471     9.905
   0.41338  0.59681  0.08962  1.27790  0.015137  0.001616 -0.000479     9.366
   0.42997  0.58038  0.09191  1.27890  0.014113  0.001605 -0.000487     8.795
   0.44649  0.56400  0.09406  1.28005  0.013083  0.001592 -0.000498     8.218
   0.46301  0.54760  0.09605  1.28142  0.012060  0.001578 -0.000512     7.643
   0.47954  0.53117  0.09790  1.28306  0.011048  0.001562 -0.000529     7.075
   0.49603  0.51477  0.09961  1.28505  0.010046  0.001543 -0.000551     6.510
   0.51242  0.49845  0.10115  1.28749  0.009089  0.001522 -0.000579     5.972
   0.52875  0.48218  0.10252  1.29053  0.008205  0.001497 -0.000603     5.479
   0.54509  0.46588  0.10371  1.29429  0.007388  0.001469 -0.000605     5.029
   0.56144  0.44957  0.10475  1.29887  0.006628  0.001437 -0.000550     4.612
   0.57774  0.43329  0.10561  1.30431  0.005937  0.001401 -0.000390     4.237
   0.59394  0.41711  0.10630  1.31048  0.005323  0.001363 -0.000094     3.906
   0.61007  0.40098  0.10679  1.31753  0.004805  0.001321  0.000314     3.638
   0.62617  0.38489  0.10708  1.32542  0.004358  0.001275  0.000823     3.417
   0.64227  0.36879  0.10718  1.33383  0.003989  0.001228  0.001369     3.247
   0.65836  0.35270  0.10708  1.34254  0.003665  0.001180  0.001974     3.106
   0.67432  0.33674  0.10680  1.35140  0.003369  0.001132  0.002676     2.977
   0.69010  0.32097  0.10629  1.35973  0.003120  0.001085  0.003380     2.875
   0.70583  0.30526  0.10554  1.36671  0.002940  0.001043  0.003907     2.817
   0.72167  0.28945  0.10454  1.37305  0.002784  0.001003  0.004388     2.775
   0.73747  0.27369  0.10335  1.37945  0.002616  0.000962  0.005028     2.720
   0.75302  0.25820  0.10195  1.38570  0.002437  0.000920  0.005908     2.650
   0.76841  0.24291  0.10027  1.38928  0.002314  0.000884  0.006478     2.617
   0.78386  0.22758  0.09831  1.39109  0.002227  0.000853  0.006777     2.612
   0.79934  0.21226  0.09610  1.39335  0.002122  0.000818  0.007281     2.593
   0.81467  0.19713  0.09366  1.39525  0.002010  0.000783  0.007933     2.567
   0.82983  0.18221  0.09095  1.39547  0.001920  0.000751  0.008406     2.556
   0.84493  0.16741  0.08797  1.39466  0.001843  0.000720  0.008703     2.561
   0.85995  0.15275  0.08473  1.39438  0.001752  0.000686  0.009216     2.555
   0.87475  0.13836  0.08125  1.39366  0.001660  0.000651  0.009778     2.550
   0.88915  0.12444  0.07757  1.39329  0.001542  0.000614  0.010941     2.514
   0.90314  0.11101  0.07364  1.38920  0.001461  0.000581  0.011509     2.515
   0.91683  0.09797  0.06946  1.38438  0.001391  0.000548  0.011750     2.537
   0.92993  0.08560  0.06517  1.38185  0.001288  0.000511  0.012879     2.522
   0.94206  0.07425  0.06087  1.37834  0.001155  0.000471  0.015421     2.452
   0.95332  0.06387  0.05649  1.36556  0.001098  0.000444  0.015677     2.476
   0.96371  0.05444  0.05215  1.35517  0.001036  0.000414  0.016021     2.503
   0.97301  0.04611  0.04801  1.34781  0.000955  0.000381  0.017265     2.505
   0.98119  0.03891  0.04412  1.34025  0.000863  0.000349  0.019599     2.475
   0.98837  0.03273  0.04046  1.32837  0.000788  0.000320  0.021641     2.459
   0.99470  0.02743  0.03701  1.31343  0.000714  0.000294  0.024399     2.427
   1.00030  0.02288  0.03375  1.29293  0.000657  0.000272  0.026437     2.415
   1.00527  0.01898  0.03066  1.26946  0.000604  0.000251  0.028531     2.403
   1.00973  0.01561  0.02774  1.24253  0.000554  0.000232  0.031032     2.385
   1.01375  0.01272  0.02495  1.21030  0.000508  0.000215  0.033605     2.365
   1.01739  0.01024  0.02228  1.17121  0.000465  0.000199  0.036648     2.334
   1.02073  0.00811  0.01971  1.12338  0.000434  0.000187  0.037913     2.326
   1.02380  0.00630  0.01724  1.07205  0.000408  0.000175  0.038221     2.334
   1.02664  0.00476  0.01485  1.01508  0.000369  0.000162  0.041991     2.281
   1.02926  0.00350  0.01255  0.94452  0.000354  0.000154  0.040261     2.293
   1.03171  0.00246  0.01033  0.87035  0.000329  0.000146  0.041503     2.251
   1.03400  0.00163  0.00819  0.78703  0.000322  0.000142  0.037540     2.273
   1.03618  0.00098  0.00612  0.70615  0.000305  0.000134  0.035728     2.271
   1.03826  0.00048  0.00410  0.61640  0.000286  0.000127  0.033813     2.252
   1.04024  0.00015  0.00214  0.51848  0.000273  0.000120  0.029384     2.268
   1.04215  0.00001  0.00024  0.41380  0.000246  0.000108  0.025869     2.272
   1.04400  0.00012 -0.00161  0.27950  0.000222  0.000100  0.020269     2.224
   1.04587  0.00052 -0.00343  0.12221  0.000228  0.000102  0.008593     2.230
   1.04780  0.00123 -0.00524 -0.03554  0.000228  0.000102  0.002499     2.230
   1.04986  0.00223 -0.00703 -0.17590  0.000261  0.000116  0.010658     2.245
   1.05205  0.00354 -0.00879 -0.31045  0.000261  0.000118  0.019160     2.220
   1.05438  0.00514 -0.01048 -0.41376  0.000316  0.000136  0.019286     2.319
   1.05689  0.00705 -0.01212 -0.50113  0.000333  0.000149  0.023868     2.238
   1.05960  0.00924 -0.01371 -0.56554  0.000402  0.000171  0.020012     2.355
   1.06254  0.01171 -0.01530 -0.62009  0.000428  0.000187  0.022044     2.284
   1.06576  0.01450 -0.01689 -0.66775  0.000482  0.000206  0.020150     2.333
   1.06931  0.01766 -0.01852 -0.71064  0.000519  0.000224  0.020194     2.318
   1.07328  0.02125 -0.02021 -0.75136  0.000562  0.000242  0.019579     2.325
   1.07773  0.02534 -0.02197 -0.78777  0.000613  0.000262  0.018547     2.341
   1.08275  0.03002 -0.02380 -0.82417  0.000653  0.000280  0.018430     2.329
   1.08845  0.03539 -0.02569 -0.85703  0.000712  0.000303  0.017191     2.352
   1.09493  0.04158 -0.02763 -0.88729  0.000770  0.000326  0.016327     2.359
   1.10237  0.04875 -0.02960 -0.91245  0.000851  0.000356  0.014759     2.390
   1.11095  0.05710 -0.03158 -0.93134  0.000951  0.000392  0.013003     2.425
   1.12083  0.06678 -0.03358 -0.94677  0.001053  0.000432  0.011763     2.440
   1.13204  0.07781 -0.03556 -0.96143  0.001147  0.000471  0.010999     2.437
   1.14448  0.09010 -0.03747 -0.97348  0.001259  0.000513  0.009989     2.452
   1.15809  0.10359 -0.03926 -0.98226  0.001383  0.000559  0.008961     2.474
   1.17266  0.11806 -0.04096 -0.99067  0.001487  0.000602  0.008453     2.469
   1.18781  0.13314 -0.04249 -0.99950  0.001575  0.000641  0.008164     2.456
   1.20335  0.14862 -0.04385 -1.00682  0.001677  0.000681  0.007669     2.463
   1.21923  0.16445 -0.04503 -1.01277  0.001780  0.000720  0.007195     2.472
   1.23540  0.18059 -0.04604 -1.01706  0.001892  0.000761  0.006685     2.488
   1.25175  0.19691 -0.04691 -1.02197  0.001972  0.000796  0.006513     2.479
   1.26813  0.21328 -0.04763 -1.02653  0.002053  0.000829  0.006301     2.476
   1.28457  0.22971 -0.04819 -1.02999  0.002148  0.000864  0.005985     2.485
   1.30115  0.24629 -0.04860 -1.03246  0.002250  0.000900  0.005645     2.499
   1.31783  0.26296 -0.04890 -1.03512  0.002331  0.000933  0.005463     2.499
   1.33448  0.27961 -0.04908 -1.03788  0.002403  0.000964  0.005338     2.494
   1.35110  0.29624 -0.04912 -1.03988  0.002489  0.000995  0.005125     2.501
   1.36778  0.31291 -0.04903 -1.04125  0.002583  0.001028  0.004887     2.513
   1.38450  0.32963 -0.04882 -1.04239  0.002670  0.001060  0.004691     2.520
   1.40120  0.34633 -0.04849 -1.04324  0.002758  0.001091  0.004509     2.528
   1.41786  0.36298 -0.04803 -1.04360  0.002852  0.001123  0.004308     2.539
   1.43449  0.37961 -0.04745 -1.04329  0.002957  0.001156  0.004071     2.557
   1.45114  0.39623 -0.04673 -1.04236  0.003074  0.001191  0.003816     2.580
   1.46777  0.41285 -0.04588 -1.04068  0.003206  0.001228  0.003532     2.610
   1.48439  0.42943 -0.04489 -1.03832  0.003353  0.001268  0.003230     2.645
   1.50097  0.44597 -0.04378 -1.03512  0.003527  0.001310  0.002891     2.693
   1.51751  0.46247 -0.04253 -1.03115  0.003730  0.001355  0.002528     2.753
   1.53401  0.47892 -0.04112 -1.02603  0.003998  0.001406  0.002078     2.844
   1.55050  0.49532 -0.03957 -1.02015  0.004331  0.001461  0.001599     2.965
   1.56702  0.51176 -0.03785 -1.01364  0.004774  0.001519  0.001070     3.142
   1.58368  0.52831 -0.03597 -1.00720  0.005331  0.001578  0.000566     3.379
   1.60055  0.54506 -0.03395 -1.00143  0.005997  0.001632  0.000151     3.675
   1.61761  0.56199 -0.03181 -0.99654  0.006756  0.001679 -0.000138     4.024
   1.63483  0.57906 -0.02959 -0.99235  0.007588  0.001722 -0.000302     4.408
   1.65218  0.59626 -0.02732 -0.98873  0.008478  0.001761 -0.000370     4.815
   1.66962  0.61355 -0.02500 -0.98570  0.009406  0.001796 -0.000383     5.239
   1.68712  0.63090 -0.02268 -0.98318  0.010353  0.001827 -0.000375     5.667
   1.70462  0.64824 -0.02037 -0.98106  0.011296  0.001855 -0.000359     6.091
   1.72205  0.66552 -0.01809 -0.97925  0.012227  0.001880 -0.000345     6.503
   1.73939  0.68272 -0.01585 -0.97768  0.013133  0.001903 -0.000333     6.900
   1.75663  0.69982 -0.01367 -0.97628  0.013992  0.001925 -0.000324     7.267
   1.77378  0.71684 -0.01156 -0.97502  0.014791  0.001946 -0.000316     7.601
   1.79085  0.73379 -0.00953 -0.97383  0.015517  0.001966 -0.000310     7.891
   1.80784  0.75067 -0.00760 -0.97271  0.016167  0.001986 -0.000304     8.138
   1.82474  0.76746 -0.00576 -0.97162  0.016721  0.002007 -0.000299     8.333
   1.84154  0.78418 -0.00404 -0.97055  0.017172  0.002027 -0.000295     8.471
   1.85823  0.80079 -0.00245 -0.96947  0.017507  0.002048 -0.000291     8.546
   1.87481  0.81731 -0.00100 -0.96836  0.017711  0.002071 -0.000288     8.553
   1.89126  0.83371  0.00030 -0.96722  0.017768  0.002094 -0.000284     8.485
   1.90759  0.85000  0.00143 -0.96601  0.017668  0.002119 -0.000282     8.338
   1.92381  0.86619  0.00238 -0.96473  0.017395  0.002145 -0.000280     8.108
   1.93987  0.88223  0.00314 -0.96335  0.016946  0.002174 -0.000278     7.795
   1.95573  0.89808  0.00370 -0.96185  0.016300  0.002204 -0.000277     7.395
   1.97131  0.91366  0.00404 -0.96023  0.015443  0.002236 -0.000279     6.906
   1.98653  0.92887  0.00415 -0.95844  0.014342  0.002270 -0.000283     6.319
   2.00124  0.94358  0.00401 -0.94907  0.013030  0.002449 -0.000183     5.321
   2.01526  0.95760  0.00361 -0.92677  0.011571  0.002869 -0.000060     4.033
   2.02837  0.97069  0.00296 -0.91091  0.009983  0.003161  0.000446     3.158
   2.04040  0.98268  0.00205 -0.90433  0.008397  0.003281  0.001239     2.560
   2.05125  0.99348  0.00090 -0.90857  0.006898  0.003226  0.002283     2.138
   2.05783  1.00000  0.00000 -0.90276  0.006901  0.003321  0.002384     2.078
   2.05783  1.00010 -0.00002  0.90276  0.048603  0.017599  0.000000     2.762
   2.06446  1.00660 -0.00133  0.90373  0.044338  0.017512  0.000000     2.532
   2.07221  1.01424 -0.00261  0.90333  0.042023  0.017547  0.000000     2.395
   2.08127  1.02320 -0.00395  0.90326  0.039748  0.017553  0.000000     2.264
   2.09186  1.03369 -0.00538  0.90368  0.037458  0.017518  0.000000     2.138
   2.10423  1.04597 -0.00690  0.90487  0.035112  0.017424  0.000000     2.015
   2.11869  1.06034 -0.00852  0.90704  0.032722  0.017260  0.000000     1.896
   2.13560  1.07715 -0.01025  0.91038  0.030325  0.017018  0.000000     1.782
   2.15535  1.09683 -0.01208  0.91497  0.027976  0.016703  0.000000     1.675
   2.17845  1.11984 -0.01402  0.92074  0.025737  0.016326  0.000000     1.576
   2.20544  1.14675 -0.01605  0.92748  0.023665  0.015911  0.000000     1.487
   2.23698  1.17823 -0.01817  0.93484  0.021802  0.015483  0.000000     1.408
   2.27386  1.21503 -0.02034  0.94243  0.020170  0.015067  0.000000     1.339
   2.31695  1.25807 -0.02255  0.94986  0.018769  0.014680  0.000000     1.278
   2.36732  1.30840 -0.02475  0.95688  0.017583  0.014333  0.000000     1.227
   2.42619  1.36723 -0.02689  0.96331  0.016592  0.014029  0.000000     1.183
   2.49501  1.43601 -0.02889  0.96908  0.015772  0.013767  0.000000     1.146
   2.57543  1.51642 -0.03069  0.97418  0.015099  0.013542  0.000000     1.115
   2.66944  1.61041 -0.03216  0.97862  0.014555  0.013352  0.000000     1.090
   2.77931  1.72028 -0.03318  0.98245  0.014119  0.013193  0.000000     1.070
   2.90773  1.84869 -0.03360  0.98569  0.013773  0.013061  0.000000     1.055
   3.05782  1.99879 -0.03323  0.98911  0.013472  0.012923  0.000000     1.042
