#    s        x        y     Ue/Vinf    Dstar     Theta      Cf       H
   0.00000  1.00000  0.00000  0.90436  0.041370  0.013366  0.000130     3.095
   0.00668  0.99360  0.00192  0.90826  0.038849  0.013079  0.000186     2.970
   0.01807  0.98272  0.00530  0.91483  0.036352  0.012622  0.000236     2.880
   0.03106  0.97032  0.00914  0.92303  0.033802  0.012086  0.000291     2.797
   0.04516  0.95680  0.01317  0.93257  0.031458  0.011505  0.000343     2.734
   0.06006  0.94246  0.01720  0.94312  0.029450  0.010908  0.000382     2.700
   0.07565  0.92739  0.02118  0.95450  0.027805  0.010307  0.000400     2.698
   0.09186  0.91167  0.02516  0.96680  0.026473  0.009700  0.000393     2.729
   0.10852  0.89549  0.02915  0.98017  0.025383  0.009082  0.000363     2.795
   0.12544  0.87905  0.03313  0.99482  0.024512  0.008449  0.000307     2.901
   0.14250  0.86245  0.03708  1.01111  0.023845  0.007791  0.000234     3.061
   0.15964  0.84577  0.04099  1.02962  0.023360  0.007091  0.000152     3.294
   0.17681  0.82904  0.04484  1.05118  0.023025  0.006331  0.000044     3.637
   0.19398  0.81229  0.04864  1.07775  0.022784  0.005463 -0.000077     4.170
   0.21115  0.79553  0.05238  1.10708  0.022618  0.004583 -0.000164     4.935
   0.22833  0.77875  0.05606  1.13936  0.022450  0.003695 -0.000209     6.076
   0.24546  0.76200  0.05967  1.17675  0.022167  0.002760 -0.000264     8.032
   0.26249  0.74535  0.06319  1.22352  0.021600  0.001708 -0.000328    12.650
   0.27941  0.72877  0.06660  1.22327  0.021224  0.001715 -0.000418    12.374
   0.29629  0.71222  0.06990  1.22398  0.020568  0.001703 -0.000422    12.075
   0.31313  0.69568  0.07308  1.22463  0.019735  0.001693 -0.000426    11.655
   0.32994  0.67915  0.07616  1.22526  0.018783  0.001684 -0.000430    11.153
   0.34670  0.66266  0.07911  1.22589  0.017742  0.001675 -0.000435    10.590
   0.36339  0.64620  0.08193  1.22657  0.016647  0.001666 -0.000441     9.990
   0.38005  0.62976  0.08462  1.22734  0.015531  0.001657 -0.000448     9.375
   0.39672  0.61329  0.08718  1.22824  0.014403  0.001646 -0.000457     8.751
   0.41338  0.59681  0.08962  1.22930  0.013268  0.001634 -0.000467     8.122
   0.42997  0.58038  0.09191  1.23058  0.012145  0.001620 -0.000481     7.499
   0.44649  0.56400  0.09406  1.23216  0.011065  0.001603 -0.000498     6.902
   0.46301  0.54760  0.09605  1.23414  0.010036  0.001584 -0.000520     6.336
   0.47954  0.53117  0.09790  1.23662  0.009059  0.001561 -0.000547     5.802
   0.49603  0.51477  0.09961  1.23970  0.008132  0.001535 -0.000564     5.297
   0.51242  0.49845  0.10115  1.24352  0.007277  0.001505 -0.000549     4.834
   0.52875  0.48218  0.10252  1.24816  0.006527  0.001471 -0.000461     4.436
   0.54509  0.46588  0.10371  1.25356  0.005861  0.001434 -0.000267     4.087
   0.56144  0.44957  0.10475  1.25974  0.005274  0.001393  0.000051     3.785
   0.57774  0.43329  0.10561  1.26679  0.004758  0.001349  0.000489     3.528
   0.59394  0.41711  0.10630  1.27454  0.004321  0.001301  0.001009     3.322
   0.61007  0.40098  0.10679  1.28262  0.003961  0.001252  0.001559     3.163
   0.62617  0.38489  0.10708  1.29069  0.003659  0.001204  0.002122     3.039
   0.64227  0.36879  0.10718  1.29844  0.003408  0.001157  0.002664     2.944
   0.65836  0.35270  0.10708  1.30584  0.003185  0.001112  0.003218     2.865
   0.67432  0.33674  0.10680  1.31314  0.002965  0.001066  0.003899     2.781
   0.69010  0.32097  0.10629  1.31929  0.002782  0.001024  0.004527     2.718
   0.70583  0.30526  0.10554  1.32385  0.002646  0.000986  0.004981     2.684
   0.72167  0.28945  0.10454  1.32752  0.002531  0.000950  0.005348     2.665
   0.73747  0.27369  0.10335  1.33172  0.002388  0.000911  0.005991     2.621
   0.75302  0.25820  0.10195  1.33531  0.002237  0.000872  0.006830     2.565
   0.76841  0.24291  0.10027  1.33592  0.002136  0.000840  0.007327     2.544
   0.78386  0.22758  0.09831  1.33504  0.002056  0.000810  0.007648     2.539
   0.79934  0.21226  0.09610  1.33400  0.001969  0.000778  0.008058     2.530
   0.81467  0.19713  0.09366  1.33311  0.001861  0.000744  0.008807     2.500
   0.82983  0.18221  0.09095  1.32948  0.001784  0.000715  0.009202     2.496
   0.84493  0.16741  0.08797  1.32503  0.001713  0.000685  0.009507     2.500
   0.85995  0.15275  0.08473  1.32068  0.001632  0.000653  0.009975     2.497
   0.87475  0.13836  0.08125  1.31584  0.001544  0.000620  0.010573     2.491
   0.88915  0.12444  0.07757  1.31056  0.001437  0.000584  0.011703     2.459
   0.90314  0.11101  0.07364  1.30123  0.001357  0.000553  0.012372     2.454
   0.91683  0.09797  0.06946  1.29000  0.001301  0.000523  0.012382     2.485
   0.92993  0.08560  0.06517  1.28179  0.001202  0.000487  0.013536     2.470
   0.94206  0.07425  0.06087  1.27121  0.001077  0.000449  0.016090     2.400
   0.95332  0.06387  0.05649  1.25022  0.001025  0.000423  0.016282     2.421
   0.96371  0.05444  0.05215  1.23148  0.000967  0.000395  0.016569     2.446
   0.97301  0.04611  0.04801  1.21552  0.000890  0.000364  0.017746     2.446
   0.98119  0.03891  0.04412  1.19843  0.000804  0.000333  0.020013     2.415
   0.98837  0.03273  0.04046  1.17580  0.000737  0.000307  0.021635     2.404
   0.99470  0.02743  0.03701  1.15013  0.000673  0.000282  0.023626     2.385
   1.00030  0.02288  0.03375  1.11985  0.000618  0.000261  0.025360     2.372
   1.00527  0.01898  0.03066  1.08510  0.000565  0.000241  0.027545     2.346
   1.00973  0.01561  0.02774  1.04501  0.000529  0.000225  0.028010     2.358
   1.01375  0.01272  0.02495  1.00263  0.000479  0.000207  0.030962     2.315
   1.01739  0.01024  0.02228  0.95080  0.000451  0.000194  0.030734     2.329
   1.02073  0.00811  0.01971  0.89535  0.000409  0.000179  0.033251     2.285
   1.02380  0.00630  0.01724  0.82937  0.000389  0.000169  0.031744     2.305
   1.02664  0.00476  0.01485  0.75941  0.000355  0.000157  0.033221     2.260
   1.02926  0.00350  0.01255  0.67928  0.000342  0.000150  0.030074     2.286
   1.03171  0.00246  0.01033  0.59514  0.000314  0.000140  0.029992     2.238
   1.03400  0.00163  0.00819  0.49971  0.000309  0.000137  0.025274     2.253
   1.03618  0.00098  0.00612  0.40592  0.000292  0.000129  0.021616     2.257
   1.03826  0.00048  0.00410  0.30145  0.000274  0.000123  0.017536     2.226
   1.04024  0.00015  0.00214  0.18946  0.000264  0.000117  0.011088     2.254
   1.04215  0.00001  0.00024  0.06270  0.000228  0.000102  0.004226     2.230
   1.04400  0.00012 -0.00161 -0.08714  0.000228  0.000102  0.006288     2.230
   1.04587  0.00052 -0.00343 -0.24341  0.000222  0.000100  0.017779     2.225
   1.04780  0.00123 -0.00524 -0.38413  0.000247  0.000109  0.024211     2.268
   1.04986  0.00223 -0.00703 -0.51217  0.000258  0.000115  0.031812     2.234
   1.05205  0.00354 -0.00879 -0.62387  0.000286  0.000125  0.033261     2.286
   1.05438  0.00514 -0.01048 -0.70895  0.000322  0.000140  0.033071     2.302
   1.05689  0.00705 -0.01212 -0.76955  0.000373  0.000159  0.029637     2.348
   1.05960  0.00924 -0.01371 -0.81062  0.000430  0.000181  0.026262     2.378
   1.06254  0.01171 -0.01530 -0.84705  0.000471  0.000200  0.025597     2.357
   1.06576  0.01450 -0.01689 -0.88041  0.000515  0.000218  0.024165     2.363
   1.06931  0.01766 -0.01852 -0.90795  0.000569  0.000239  0.022072     2.385
   1.07328  0.02125 -0.02021 -0.93351  0.000616  0.000259  0.021020     2.382
   1.07773  0.02534 -0.02197 -0.95871  0.000662  0.000279  0.020159     2.378
   1.08275  0.03002 -0.02380 -0.98290  0.000713  0.000299  0.019137     2.381
   1.08845  0.03539 -0.02569 -1.00618  0.000766  0.000321  0.018175     2.384
   1.09493  0.04158 -0.02763 -1.02638  0.000834  0.000347  0.016684     2.405
   1.10237  0.04875 -0.02960 -1.04148  0.000922  0.000378  0.014766     2.440
   1.11095  0.05710 -0.03158 -1.05142  0.001029  0.000415  0.012850     2.478
   1.12083  0.06678 -0.03358 -1.05767  0.001146  0.000457  0.011255     2.507
   1.13204  0.07781 -0.03556 -1.06362  0.001250  0.000499  0.010402     2.505
   1.14448  0.09010 -0.03747 -1.06743  0.001374  0.000544  0.009302     2.524
   1.15809  0.10359 -0.03926 -1.06911  0.001509  0.000593  0.008283     2.545
   1.17266  0.11806 -0.04096 -1.07172  0.001615  0.000637  0.007861     2.533
   1.18781  0.13314 -0.04249 -1.07471  0.001715  0.000680  0.007493     2.524
   1.20335  0.14862 -0.04385 -1.07736  0.001819  0.000721  0.007090     2.524
   1.21923  0.16445 -0.04503 -1.07902  0.001932  0.000762  0.006613     2.534
   1.23540  0.18059 -0.04604 -1.07951  0.002053  0.000805  0.006109     2.551
   1.25175  0.19691 -0.04691 -1.08089  0.002141  0.000842  0.005924     2.542
   1.26813  0.21328 -0.04763 -1.08226  0.002228  0.000878  0.005728     2.538
   1.28457  0.22971 -0.04819 -1.08273  0.002333  0.000915  0.005409     2.548
   1.30115  0.24629 -0.04860 -1.08270  0.002439  0.000953  0.005105     2.560
   1.31783  0.26296 -0.04890 -1.08268  0.002535  0.000988  0.004885     2.565
   1.33448  0.27961 -0.04908 -1.08311  0.002613  0.001021  0.004772     2.560
   1.35110  0.29624 -0.04912 -1.08275  0.002712  0.001055  0.004540     2.570
   1.36778  0.31291 -0.04903 -1.08196  0.002817  0.001090  0.004301     2.584
   1.38450  0.32963 -0.04882 -1.08103  0.002918  0.001125  0.004099     2.595
   1.40120  0.34633 -0.04849 -1.07984  0.003022  0.001159  0.003900     2.607
   1.41786  0.36298 -0.04803 -1.07807  0.003139  0.001195  0.003660     2.627
   1.43449  0.37961 -0.04745 -1.07577  0.003270  0.001232  0.003400     2.653
   1.45114  0.39623 -0.04673 -1.07276  0.003422  0.001272  0.003101     2.690
   1.46777  0.41285 -0.04588 -1.06899  0.003601  0.001315  0.002763     2.739
   1.48439  0.42943 -0.04489 -1.06462  0.003805  0.001360  0.002411     2.798
   1.50097  0.44597 -0.04378 -1.05947  0.004057  0.001409  0.002011     2.880
   1.51751  0.46247 -0.04253 -1.05369  0.004367  0.001460  0.001578     2.990
   1.53401  0.47892 -0.04112 -1.04737  0.004771  0.001516  0.001096     3.148
   1.55050  0.49532 -0.03957 -1.04106  0.005281  0.001571  0.000620     3.361
   1.56702  0.51176 -0.03785 -1.03526  0.005934  0.001623  0.000181     3.655
   1.58368  0.52831 -0.03597 -1.03037  0.006737  0.001669 -0.000152     4.037
   1.60055  0.54506 -0.03395 -1.02626  0.007665  0.001709 -0.000337     4.485
   1.61761  0.56199 -0.03181 -1.02282  0.008691  0.001745 -0.000400     4.981
   1.63483  0.57906 -0.02959 -1.02009  0.009793  0.001776 -0.000402     5.515
   1.65218  0.59626 -0.02732 -1.01792  0.010943  0.001802 -0.000384     6.072
   1.66962  0.61355 -0.02500 -1.01617  0.012118  0.001825 -0.000366     6.640
   1.68712  0.63090 -0.02268 -1.01474  0.013286  0.001845 -0.000352     7.200
   1.70462  0.64824 -0.02037 -1.01353  0.014434  0.001863 -0.000342     7.747
   1.72205  0.66552 -0.01809 -1.01249  0.015540  0.001879 -0.000334     8.268
   1.73939  0.68272 -0.01585 -1.01157  0.016594  0.001895 -0.000327     8.758
   1.75663  0.69982 -0.01367 -1.01072  0.017572  0.001910 -0.000321     9.202
   1.77378  0.71684 -0.01156 -1.00992  0.018458  0.001924 -0.000317     9.593
   1.79085  0.73379 -0.00953 -1.00914  0.019239  0.001939 -0.000313     9.921
   1.80784  0.75067 -0.00760 -1.00836  0.019906  0.001955 -0.000309    10.184
   1.82474  0.76746 -0.00576 -1.00756  0.020443  0.001971 -0.000305    10.371
   1.84154  0.78418 -0.00404 -1.00674  0.020833  0.001989 -0.000302    10.476
   1.85823  0.80079 -0.00245 -1.00586  0.021060  0.002008 -0.000299    10.489
   1.87481  0.81731 -0.00100 -1.00493  0.021102  0.002029 -0.000296    10.401
   1.89126  0.83371  0.00030 -1.00390  0.020931  0.002052 -0.000293    10.200
   1.90759  0.85000  0.00143 -1.00276  0.020516  0.002078 -0.000290     9.873
   1.92381  0.86619  0.00238 -1.00146  0.019806  0.002107 -0.000288     9.398
   1.93987  0.88223  0.00314 -0.98869  0.018877  0.002412 -0.000215     7.828
   1.95573  0.89808  0.00370 -0.96056  0.017760  0.003105 -0.000196     5.720
   1.97131  0.91366  0.00404 -0.93231  0.016391  0.003825 -0.000111     4.285
   1.98653  0.92887  0.00415 -0.90937  0.014851  0.004422  0.000194     3.359
   2.00124  0.94358  0.00401 -0.89435  0.013252  0.004814  0.000620     2.753
   2.01526  0.95760  0.00361 -0.88706  0.011696  0.005004  0.001106     2.337
   2.02837  0.97069  0.00296 -0.88731  0.010228  0.005009  0.001639     2.042
   2.04040  0.98268  0.00205 -0.89493  0.008861  0.004858  0.002283     1.824
   2.05125  0.99348  0.00090 -0.91046  0.007571  0.004573  0.003163     1.656
   2.05783  1.00000  0.00000 -0.90436  0.007696  0.004699  0.003186     1.638
   2.05783  1.00010 -0.00002  0.90436  0.049066  0.018065  0.000000     2.716
   2.06446  1.00660 -0.00133  0.90520  0.044876  0.017987  0.000000     2.495
   2.07221  1.01424 -0.00263  0.90454  0.042606  0.018046  0.000000     2.361
   2.08127  1.02319 -0.00400  0.90419  0.040355  0.018076  0.000000     2.233
   2.09186  1.03367 -0.00547  0.90434  0.038071  0.018063  0.000000     2.108
   2.10423  1.04595 -0.00704  0.90527  0.035714  0.017988  0.000000     1.985
   2.11869  1.06031 -0.00874  0.90725  0.033296  0.017834  0.000000     1.867
   2.13560  1.07711 -0.01057  0.91047  0.030859  0.017595  0.000000     1.754
   2.15535  1.09677 -0.01255  0.91502  0.028463  0.017273  0.000000     1.648
   2.17845  1.11977 -0.01466  0.92085  0.026174  0.016883  0.000000     1.550
   2.20544  1.14666 -0.01692  0.92772  0.024057  0.016449  0.000000     1.463
   2.23698  1.17812 -0.01934  0.93526  0.022157  0.015999  0.000000     1.385
   2.27386  1.21490 -0.02189  0.94304  0.020497  0.015561  0.000000     1.317
   2.31695  1.25791 -0.02458  0.95065  0.019078  0.015155  0.000000     1.259
   2.36732  1.30820 -0.02738  0.95781  0.017884  0.014792  0.000000     1.209
   2.42619  1.36701 -0.03028  0.96434  0.016892  0.014475  0.000000     1.167
   2.49501  1.43575 -0.03325  0.97018  0.016077  0.014203  0.000000     1.132
   2.57543  1.51612 -0.03624  0.97530  0.015415  0.013971  0.000000     1.103
   2.66944  1.61008 -0.03921  0.97973  0.014883  0.013776  0.000000     1.080
   2.77931  1.71991 -0.04208  0.98351  0.014460  0.013614  0.000000     1.062
   2.90773  1.84830 -0.04478  0.98669  0.014128  0.013480  0.000000     1.048
   3.05782  1.99838 -0.04721  0.98999  0.013840  0.013344  0.000000     1.037
