#    s        x        y     Ue/Vinf    Dstar     Theta      Cf       H
   0.00000  1.00000  0.00000  0.91396  0.042846  0.012259  0.000045     3.495
   0.00668  0.99360  0.00192  0.91673  0.040392  0.012060  0.000073     3.349
   0.01807  0.98272  0.00530  0.92285  0.038016  0.011641  0.000095     3.266
   0.03106  0.97032  0.00914  0.93061  0.035604  0.011141  0.000119     3.196
   0.04516  0.95680  0.01317  0.93986  0.033401  0.010584  0.000141     3.156
   0.06006  0.94246  0.01720  0.95046  0.031529  0.009989  0.000148     3.156
   0.07565  0.92739  0.02118  0.96243  0.030016  0.009360  0.000143     3.207
   0.09186  0.91167  0.02516  0.97603  0.028806  0.008693  0.000119     3.314
   0.10852  0.89549  0.02915  0.99156  0.027825  0.007982  0.000078     3.486
   0.12544  0.87905  0.03313  1.00994  0.027031  0.007199  0.000016     3.755
   0.14250  0.86245  0.03708  1.03124  0.026390  0.006359 -0.000057     4.150
   0.15964  0.84577  0.04099  1.05467  0.025879  0.005505 -0.000122     4.701
   0.17681  0.82904  0.04484  1.08043  0.025445  0.004640 -0.000163     5.484
   0.19398  0.81229  0.04864  1.10933  0.025021  0.003750 -0.000194     6.672
   0.21115  0.79553  0.05238  1.14338  0.024510  0.002797 -0.000250     8.763
   0.22833  0.77875  0.05606  1.18514  0.023743  0.001748 -0.000394    13.585
   0.24546  0.76200  0.05967  1.18580  0.023186  0.001735 -0.000398    13.363
   0.26249  0.74535  0.06319  1.18634  0.022360  0.001725 -0.000401    12.959
   0.27941  0.72877  0.06660  1.18683  0.021372  0.001717 -0.000404    12.444
   0.29629  0.71222  0.06990  1.18730  0.020278  0.001710 -0.000408    11.857
   0.31313  0.69568  0.07308  1.18779  0.019109  0.001703 -0.000412    11.219
   0.32994  0.67915  0.07616  1.18832  0.017895  0.001696 -0.000417    10.551
   0.34670  0.66266  0.07911  1.18891  0.016649  0.001688 -0.000423     9.862
   0.36339  0.64620  0.08193  1.18961  0.015400  0.001679 -0.000430     9.171
   0.38005  0.62976  0.08462  1.19047  0.014172  0.001669 -0.000439     8.493
   0.39672  0.61329  0.08718  1.19155  0.012970  0.001656 -0.000451     7.832
   0.41338  0.59681  0.08962  1.19289  0.011799  0.001641 -0.000466     7.190
   0.42997  0.58038  0.09191  1.19457  0.010669  0.001623 -0.000486     6.572
   0.44649  0.56400  0.09406  1.19672  0.009612  0.001602 -0.000510     5.998
   0.46301  0.54760  0.09605  1.19944  0.008635  0.001577 -0.000532     5.474
   0.47954  0.53117  0.09790  1.20285  0.007733  0.001548 -0.000531     4.994
   0.49603  0.51477  0.09961  1.20705  0.006901  0.001515 -0.000469     4.554
   0.51242  0.49845  0.10115  1.21204  0.006162  0.001478 -0.000301     4.169
   0.52875  0.48218  0.10252  1.21773  0.005531  0.001438 -0.000017     3.846
   0.54509  0.46588  0.10371  1.22426  0.004996  0.001394  0.000366     3.585
   0.56144  0.44957  0.10475  1.23155  0.004534  0.001346  0.000838     3.368
   0.57774  0.43329  0.10561  1.23935  0.004137  0.001296  0.001374     3.192
   0.59394  0.41711  0.10630  1.24723  0.003804  0.001246  0.001937     3.052
   0.61007  0.40098  0.10679  1.25473  0.003534  0.001198  0.002472     2.949
   0.62617  0.38489  0.10708  1.26181  0.003302  0.001152  0.003003     2.866
   0.64227  0.36879  0.10718  1.26815  0.003110  0.001108  0.003480     2.806
   0.65836  0.35270  0.10708  1.27412  0.002929  0.001065  0.003999     2.749
   0.67432  0.33674  0.10680  1.27971  0.002750  0.001023  0.004611     2.689
   0.69010  0.32097  0.10629  1.28428  0.002590  0.000983  0.005232     2.636
   0.70583  0.30526  0.10554  1.28696  0.002474  0.000947  0.005650     2.611
   0.72167  0.28945  0.10454  1.28846  0.002384  0.000915  0.005909     2.606
   0.73747  0.27369  0.10335  1.29100  0.002251  0.000877  0.006560     2.566
   0.75302  0.25820  0.10195  1.29254  0.002115  0.000840  0.007362     2.518
   0.76841  0.24291  0.10027  1.29113  0.002021  0.000809  0.007872     2.498
   0.78386  0.22758  0.09831  1.28770  0.001954  0.000781  0.008089     2.501
   0.79934  0.21226  0.09610  1.28476  0.001865  0.000750  0.008586     2.487
   0.81467  0.19713  0.09366  1.28086  0.001773  0.000719  0.009189     2.467
   0.82983  0.18221  0.09095  1.27508  0.001693  0.000689  0.009692     2.456
   0.84493  0.16741  0.08797  1.26754  0.001627  0.000661  0.009975     2.461
   0.85995  0.15275  0.08473  1.25984  0.001553  0.000631  0.010375     2.462
   0.87475  0.13836  0.08125  1.25168  0.001470  0.000599  0.010950     2.457
   0.88915  0.12444  0.07757  1.24269  0.001368  0.000564  0.012074     2.425
   0.90314  0.11101  0.07364  1.22908  0.001291  0.000534  0.012747     2.418
   0.91683  0.09797  0.06946  1.21310  0.001240  0.000506  0.012642     2.452
   0.92993  0.08560  0.06517  1.20025  0.001141  0.000469  0.013881     2.432
   0.94206  0.07425  0.06087  1.18331  0.001031  0.000434  0.016004     2.377
   0.95332  0.06387  0.05649  1.15711  0.000970  0.000408  0.016587     2.379
   0.96371  0.05444  0.05215  1.13069  0.000922  0.000382  0.016500     2.413
   0.97301  0.04611  0.04801  1.10797  0.000843  0.000351  0.017880     2.401
   0.98119  0.03891  0.04412  1.08209  0.000768  0.000322  0.019508     2.383
   0.98837  0.03273  0.04046  1.05186  0.000703  0.000297  0.021045     2.368
   0.99470  0.02743  0.03701  1.01764  0.000646  0.000274  0.022334     2.359
   1.00030  0.02288  0.03375  0.97984  0.000592  0.000252  0.023816     2.344
   1.00527  0.01898  0.03066  0.93638  0.000542  0.000233  0.025444     2.321
   1.00973  0.01561  0.02774  0.88701  0.000505  0.000217  0.025771     2.323
   1.01375  0.01272  0.02495  0.83371  0.000462  0.000201  0.027221     2.294
   1.01739  0.01024  0.02228  0.77390  0.000436  0.000188  0.026274     2.314
   1.02073  0.00811  0.01971  0.70885  0.000393  0.000174  0.028124     2.259
   1.02380  0.00630  0.01724  0.63236  0.000379  0.000165  0.025311     2.289
   1.02664  0.00476  0.01485  0.55424  0.000345  0.000153  0.025102     2.254
   1.02926  0.00350  0.01255  0.46383  0.000329  0.000146  0.022153     2.249
   1.03171  0.00246  0.01033  0.37115  0.000312  0.000138  0.018501     2.261
   1.03400  0.00163  0.00819  0.26886  0.000293  0.000132  0.014916     2.212
   1.03618  0.00098  0.00612  0.16366  0.000296  0.000131  0.008656     2.254
   1.03826  0.00048  0.00410  0.05359  0.000256  0.000115  0.003348     2.230
   1.04024  0.00015  0.00214 -0.07414  0.000256  0.000115  0.004632     2.230
   1.04215  0.00001  0.00024 -0.22526  0.000219  0.000099  0.016800     2.208
   1.04400  0.00012 -0.00161 -0.37737  0.000231  0.000102  0.025406     2.262
   1.04587  0.00052 -0.00343 -0.53543  0.000219  0.000100  0.040259     2.198
   1.04780  0.00123 -0.00524 -0.66970  0.000251  0.000109  0.039621     2.311
   1.04986  0.00223 -0.00703 -0.78167  0.000265  0.000118  0.046263     2.252
   1.05205  0.00354 -0.00879 -0.87474  0.000300  0.000130  0.042958     2.318
   1.05438  0.00514 -0.01048 -0.94345  0.000336  0.000144  0.040965     2.330
   1.05689  0.00705 -0.01212 -0.98545  0.000397  0.000165  0.033533     2.408
   1.05960  0.00924 -0.01371 -1.00946  0.000460  0.000188  0.028609     2.443
   1.06254  0.01171 -0.01530 -1.03055  0.000508  0.000209  0.026915     2.426
   1.06576  0.01450 -0.01689 -1.05180  0.000552  0.000229  0.025626     2.414
   1.06931  0.01766 -0.01852 -1.06519  0.000623  0.000253  0.021806     2.465
   1.07328  0.02125 -0.02021 -1.08090  0.000663  0.000273  0.021514     2.431
   1.07773  0.02534 -0.02197 -1.09636  0.000715  0.000294  0.020223     2.432
   1.08275  0.03002 -0.02380 -1.11143  0.000769  0.000316  0.019078     2.431
   1.08845  0.03539 -0.02569 -1.12553  0.000828  0.000340  0.017829     2.437
   1.09493  0.04158 -0.02763 -1.13760  0.000899  0.000366  0.016351     2.453
   1.10237  0.04875 -0.02960 -1.14548  0.000991  0.000398  0.014379     2.488
   1.11095  0.05710 -0.03158 -1.14725  0.001117  0.000438  0.011989     2.547
   1.12083  0.06678 -0.03358 -1.14627  0.001244  0.000482  0.010378     2.580
   1.13204  0.07781 -0.03556 -1.14560  0.001356  0.000526  0.009535     2.578
   1.14448  0.09010 -0.03747 -1.14298  0.001495  0.000574  0.008382     2.603
   1.15809  0.10359 -0.03926 -1.13949  0.001635  0.000624  0.007485     2.621
   1.17266  0.11806 -0.04096 -1.13658  0.001760  0.000672  0.006949     2.619
   1.18781  0.13314 -0.04249 -1.13531  0.001860  0.000716  0.006726     2.598
   1.20335  0.14862 -0.04385 -1.13373  0.001976  0.000760  0.006308     2.600
   1.21923  0.16445 -0.04503 -1.13186  0.002096  0.000804  0.005889     2.608
   1.23540  0.18059 -0.04604 -1.12945  0.002222  0.000848  0.005454     2.622
   1.25175  0.19691 -0.04691 -1.12800  0.002318  0.000887  0.005270     2.613
   1.26813  0.21328 -0.04763 -1.12655  0.002419  0.000926  0.005051     2.612
   1.28457  0.22971 -0.04819 -1.12494  0.002522  0.000964  0.004812     2.617
   1.30115  0.24629 -0.04860 -1.12271  0.002642  0.001004  0.004501     2.633
   1.31783  0.26296 -0.04890 -1.12075  0.002746  0.001041  0.004298     2.638
   1.33448  0.27961 -0.04908 -1.11899  0.002842  0.001077  0.004139     2.639
   1.35110  0.29624 -0.04912 -1.11696  0.002946  0.001113  0.003945     2.648
   1.36778  0.31291 -0.04903 -1.11426  0.003073  0.001151  0.003677     2.669
   1.38450  0.32963 -0.04882 -1.11166  0.003188  0.001188  0.003476     2.684
   1.40120  0.34633 -0.04849 -1.10869  0.003316  0.001226  0.003248     2.705
   1.41786  0.36298 -0.04803 -1.10522  0.003462  0.001266  0.002985     2.735
   1.43449  0.37961 -0.04745 -1.10123  0.003628  0.001307  0.002693     2.776
   1.45114  0.39623 -0.04673 -1.09659  0.003827  0.001351  0.002358     2.832
   1.46777  0.41285 -0.04588 -1.09131  0.004069  0.001399  0.001980     2.909
   1.48439  0.42943 -0.04489 -1.08561  0.004351  0.001448  0.001592     3.005
   1.50097  0.44597 -0.04378 -1.07949  0.004704  0.001500  0.001170     3.136
   1.51751  0.46247 -0.04253 -1.07326  0.005150  0.001553  0.000731     3.316
   1.53401  0.47892 -0.04112 -1.06737  0.005704  0.001604  0.000315     3.556
   1.55050  0.49532 -0.03957 -1.06220  0.006400  0.001650 -0.000041     3.879
   1.56702  0.51176 -0.03785 -1.05788  0.007243  0.001690 -0.000283     4.285
   1.58368  0.52831 -0.03597 -1.05420  0.008241  0.001726 -0.000398     4.774
   1.60055  0.54506 -0.03395 -1.05128  0.009362  0.001757 -0.000418     5.328
   1.61761  0.56199 -0.03181 -1.04902  0.010573  0.001783 -0.000404     5.929
   1.63483  0.57906 -0.02959 -1.04728  0.011842  0.001805 -0.000383     6.562
   1.65218  0.59626 -0.02732 -1.04591  0.013144  0.001823 -0.000367     7.211
   1.66962  0.61355 -0.02500 -1.04480  0.014446  0.001838 -0.000356     7.858
   1.68712  0.63090 -0.02268 -1.04388  0.015724  0.001852 -0.000347     8.490
   1.70462  0.64824 -0.02037 -1.04308  0.016954  0.001865 -0.000340     9.092
   1.72205  0.66552 -0.01809 -1.04237  0.018117  0.001876 -0.000335     9.655
   1.73939  0.68272 -0.01585 -1.04171  0.019200  0.001888 -0.000330    10.170
   1.75663  0.69982 -0.01367 -1.04107  0.020178  0.001900 -0.000326    10.622
   1.77378  0.71684 -0.01156 -1.04044  0.021034  0.001912 -0.000322    11.001
   1.79085  0.73379 -0.00953 -1.03979  0.021752  0.001925 -0.000319    11.298
   1.80784  0.75067 -0.00760 -1.03910  0.022318  0.001940 -0.000316    11.505
   1.82474  0.76746 -0.00576 -1.03837  0.022711  0.001956 -0.000313    11.610
   1.84154  0.78418 -0.00404 -1.03757  0.022905  0.001974 -0.000310    11.602
   1.85823  0.80079 -0.00245 -1.03668  0.022870  0.001995 -0.000307    11.464
   1.87481  0.81731 -0.00100 -1.03566  0.022558  0.002019 -0.000304    11.175
   1.89126  0.83371  0.00030 -1.03448  0.021891  0.002047 -0.000301    10.697
   1.90759  0.85000  0.00143 -1.00149  0.021224  0.002918 -0.000219     7.273
   1.92381  0.86619  0.00238 -0.97126  0.020188  0.003764 -0.000181     5.364
   1.93987  0.88223  0.00314 -0.94200  0.018947  0.004623 -0.000063     4.099
   1.95573  0.89808  0.00370 -0.91860  0.017561  0.005335  0.000194     3.292
   1.97131  0.91366  0.00404 -0.90215  0.016121  0.005845  0.000508     2.758
   1.98653  0.92887  0.00415 -0.89205  0.014694  0.006160  0.000839     2.385
   2.00124  0.94358  0.00401 -0.88770  0.013325  0.006300  0.001254     2.115
   2.01526  0.95760  0.00361 -0.88853  0.012036  0.006289  0.001755     1.914
   2.02837  0.97069  0.00296 -0.89430  0.010818  0.006152  0.002310     1.759
   2.04040  0.98268  0.00205 -0.90509  0.009654  0.005904  0.002929     1.635
   2.05125  0.99348  0.00090 -0.92169  0.008510  0.005552  0.003650     1.533
   2.05783  1.00000  0.00000 -0.91396  0.008773  0.005734  0.003576     1.530
   2.05783  1.00010 -0.00002  0.91396  0.051618  0.017994  0.000000     2.869
   2.06446  1.00660 -0.00134  0.91332  0.047361  0.018054  0.000000     2.623
   2.07221  1.01423 -0.00265  0.91161  0.045062  0.018208  0.000000     2.475
   2.08127  1.02318 -0.00404  0.91018  0.042764  0.018334  0.000000     2.332
   2.09186  1.03366 -0.00554  0.90923  0.040407  0.018416  0.000000     2.194
   2.10423  1.04593 -0.00716  0.90905  0.037946  0.018431  0.000000     2.059
   2.11869  1.06029 -0.00892  0.90994  0.035392  0.018359  0.000000     1.928
   2.13560  1.07708 -0.01083  0.91216  0.032790  0.018187  0.000000     1.803
   2.15535  1.09673 -0.01291  0.91588  0.030203  0.017912  0.000000     1.686
   2.17845  1.11971 -0.01516  0.92108  0.027713  0.017547  0.000000     1.579
   2.20544  1.14659 -0.01761  0.92758  0.025396  0.017117  0.000000     1.484
   2.23698  1.17803 -0.02025  0.93498  0.023311  0.016656  0.000000     1.400
   2.27386  1.21479 -0.02310  0.94278  0.021491  0.016197  0.000000     1.327
   2.31695  1.25777 -0.02617  0.95053  0.019941  0.015766  0.000000     1.265
   2.36732  1.30804 -0.02945  0.95785  0.018644  0.015379  0.000000     1.212
   2.42619  1.36681 -0.03295  0.96454  0.017574  0.015042  0.000000     1.168
   2.49501  1.43552 -0.03667  0.97050  0.016702  0.014753  0.000000     1.132
   2.57543  1.51585 -0.04060  0.97571  0.015998  0.014508  0.000000     1.103
   2.66944  1.60976 -0.04474  0.98020  0.015437  0.014304  0.000000     1.079
   2.77931  1.71955 -0.04906  0.98400  0.014995  0.014135  0.000000     1.061
   2.90773  1.84789 -0.05355  0.98717  0.014651  0.013997  0.000000     1.047
   3.05782  1.99791 -0.05819  0.99048  0.014353  0.013855  0.000000     1.036
