#    s        x        y     Ue/Vinf    Dstar     Theta      Cf       H
   0.00000  1.00000  0.00000  0.92249  0.046243  0.012260  0.000007     3.772
   0.00668  0.99360  0.00192  0.92441  0.043707  0.012115  0.000028     3.608
   0.01807  0.98272  0.00530  0.92923  0.041265  0.011770  0.000046     3.506
   0.03106  0.97032  0.00914  0.93565  0.038751  0.011335  0.000065     3.419
   0.04516  0.95680  0.01317  0.94379  0.036409  0.010818  0.000080     3.366
   0.06006  0.94246  0.01720  0.95332  0.034371  0.010250  0.000089     3.353
   0.07565  0.92739  0.02118  0.96424  0.032671  0.009641  0.000086     3.389
   0.09186  0.91167  0.02516  0.97672  0.031258  0.008990  0.000070     3.477
   0.10852  0.89549  0.02915  0.99124  0.030055  0.008282  0.000040     3.629
   0.12544  0.87905  0.03313  1.00795  0.029036  0.007524 -0.000005     3.859
   0.14250  0.86245  0.03708  1.02662  0.028182  0.006737 -0.000058     4.183
   0.15964  0.84577  0.04099  1.04711  0.027465  0.005937 -0.000108     4.626
   0.17681  0.82904  0.04484  1.06957  0.026844  0.005126 -0.000146     5.237
   0.19398  0.81229  0.04864  1.09444  0.026274  0.004298 -0.000173     6.113
   0.21115  0.79553  0.05238  1.12262  0.025695  0.003438 -0.000207     7.473
   0.22833  0.77875  0.05606  1.15620  0.024992  0.002509 -0.000276     9.962
   0.24546  0.76200  0.05967  1.18822  0.024137  0.001720 -0.000401    14.035
   0.26249  0.74535  0.06319  1.18879  0.023418  0.001709 -0.000404    13.701
   0.27941  0.72877  0.06660  1.18927  0.022483  0.001701 -0.000407    13.218
   0.29629  0.71222  0.06990  1.18971  0.021407  0.001694 -0.000411    12.637
   0.31313  0.69568  0.07308  1.19015  0.020239  0.001688 -0.000414    11.992
   0.32994  0.67915  0.07616  1.19060  0.019006  0.001681 -0.000418    11.304
   0.34670  0.66266  0.07911  1.19110  0.017735  0.001675 -0.000423    10.590
   0.36339  0.64620  0.08193  1.19168  0.016450  0.001667 -0.000429     9.867
   0.38005  0.62976  0.08462  1.19239  0.015177  0.001658 -0.000437     9.152
   0.39672  0.61329  0.08718  1.19328  0.013923  0.001648 -0.000446     8.450
   0.41338  0.59681  0.08962  1.19438  0.012693  0.001635 -0.000459     7.763
   0.42997  0.58038  0.09191  1.19577  0.011497  0.001620 -0.000475     7.098
   0.44649  0.56400  0.09406  1.19756  0.010372  0.001602 -0.000496     6.476
   0.46301  0.54760  0.09605  1.19984  0.009321  0.001580 -0.000522     5.901
   0.47954  0.53117  0.09790  1.20276  0.008344  0.001554 -0.000542     5.370
   0.49603  0.51477  0.09961  1.20641  0.007434  0.001524 -0.000531     4.879
   0.51242  0.49845  0.10115  1.21090  0.006614  0.001489 -0.000440     4.442
   0.52875  0.48218  0.10252  1.21617  0.005915  0.001451 -0.000239     4.076
   0.54509  0.46588  0.10371  1.22223  0.005308  0.001409  0.000084     3.766
   0.56144  0.44957  0.10475  1.22918  0.004786  0.001364  0.000518     3.510
   0.57774  0.43329  0.10561  1.23687  0.004335  0.001314  0.001044     3.298
   0.59394  0.41711  0.10630  1.24487  0.003962  0.001264  0.001608     3.134
   0.61007  0.40098  0.10679  1.25273  0.003658  0.001215  0.002165     3.011
   0.62617  0.38489  0.10708  1.26028  0.003399  0.001167  0.002725     2.913
   0.64227  0.36879  0.10718  1.26713  0.003188  0.001122  0.003230     2.842
   0.65836  0.35270  0.10708  1.27360  0.002992  0.001077  0.003772     2.777
   0.67432  0.33674  0.10680  1.27963  0.002804  0.001034  0.004391     2.713
   0.69010  0.32097  0.10629  1.28475  0.002634  0.000992  0.005037     2.654
   0.70583  0.30526  0.10554  1.28791  0.002512  0.000956  0.005466     2.627
   0.72167  0.28945  0.10454  1.28999  0.002414  0.000922  0.005768     2.617
   0.73747  0.27369  0.10335  1.29286  0.002278  0.000884  0.006412     2.577
   0.75302  0.25820  0.10195  1.29483  0.002140  0.000847  0.007221     2.527
   0.76841  0.24291  0.10027  1.29388  0.002042  0.000815  0.007739     2.506
   0.78386  0.22758  0.09831  1.29081  0.001977  0.000787  0.007928     2.511
   0.79934  0.21226  0.09610  1.28856  0.001883  0.000755  0.008471     2.493
   0.81467  0.19713  0.09366  1.28517  0.001788  0.000723  0.009098     2.472
   0.82983  0.18221  0.09095  1.27971  0.001709  0.000694  0.009568     2.463
   0.84493  0.16741  0.08797  1.27275  0.001642  0.000665  0.009849     2.468
   0.85995  0.15275  0.08473  1.26580  0.001563  0.000634  0.010327     2.465
   0.87475  0.13836  0.08125  1.25793  0.001482  0.000602  0.010868     2.461
   0.88915  0.12444  0.07757  1.24944  0.001381  0.000568  0.011935     2.432
   0.90314  0.11101  0.07364  1.23684  0.001299  0.000537  0.012697     2.421
   0.91683  0.09797  0.06946  1.22141  0.001248  0.000508  0.012621     2.455
   0.92993  0.08560  0.06517  1.20900  0.001152  0.000472  0.013713     2.441
   0.94206  0.07425  0.06087  1.19350  0.001035  0.000435  0.016057     2.378
   0.95332  0.06387  0.05649  1.16768  0.000977  0.000410  0.016577     2.382
   0.96371  0.05444  0.05215  1.14210  0.000931  0.000385  0.016366     2.421
   0.97301  0.04611  0.04801  1.12104  0.000851  0.000353  0.017760     2.411
   0.98119  0.03891  0.04412  1.09672  0.000770  0.000323  0.019764     2.382
   0.98837  0.03273  0.04046  1.06677  0.000709  0.000298  0.020996     2.376
   0.99470  0.02743  0.03701  1.03399  0.000647  0.000275  0.022757     2.355
   1.00030  0.02288  0.03375  0.99591  0.000596  0.000254  0.024039     2.345
   1.00527  0.01898  0.03066  0.95371  0.000548  0.000235  0.025364     2.330
   1.00973  0.01561  0.02774  0.90740  0.000510  0.000218  0.025840     2.335
   1.01375  0.01272  0.02495  0.85675  0.000462  0.000201  0.027841     2.299
   1.01739  0.01024  0.02228  0.79514  0.000431  0.000189  0.028100     2.284
   1.02073  0.00811  0.01971  0.72948  0.000407  0.000177  0.026935     2.298
   1.02380  0.00630  0.01724  0.66073  0.000373  0.000164  0.027026     2.281
   1.02664  0.00476  0.01485  0.57824  0.000346  0.000155  0.026637     2.235
   1.02926  0.00350  0.01255  0.49220  0.000338  0.000147  0.021836     2.299
   1.03171  0.00246  0.01033  0.40128  0.000300  0.000135  0.021714     2.215
   1.03400  0.00163  0.00819  0.29525  0.000305  0.000136  0.015212     2.249
   1.03618  0.00098  0.00612  0.19450  0.000283  0.000126  0.010893     2.241
   1.03826  0.00048  0.00410  0.08109  0.000267  0.000120  0.004855     2.230
   1.04024  0.00015  0.00214 -0.03623  0.000267  0.000120  0.002170     2.230
   1.04215  0.00001  0.00024 -0.19112  0.000208  0.000094  0.014932     2.211
   1.04400  0.00012 -0.00161 -0.34203  0.000236  0.000103  0.021991     2.287
   1.04587  0.00052 -0.00343 -0.49485  0.000220  0.000101  0.037462     2.182
   1.04780  0.00123 -0.00524 -0.63399  0.000249  0.000108  0.038112     2.304
   1.04986  0.00223 -0.00703 -0.74785  0.000264  0.000117  0.044312     2.254
   1.05205  0.00354 -0.00879 -0.84452  0.000297  0.000128  0.042400     2.308
   1.05438  0.00514 -0.01048 -0.91282  0.000338  0.000144  0.039043     2.340
   1.05689  0.00705 -0.01212 -0.95865  0.000390  0.000164  0.034001     2.384
   1.05960  0.00924 -0.01371 -0.98461  0.000458  0.000188  0.028089     2.441
   1.06254  0.01171 -0.01530 -1.00938  0.000497  0.000207  0.027578     2.403
   1.06576  0.01450 -0.01689 -1.02839  0.000558  0.000229  0.024187     2.437
   1.06931  0.01766 -0.01852 -1.04540  0.000609  0.000250  0.022621     2.433
   1.07328  0.02125 -0.02021 -1.06272  0.000656  0.000271  0.021558     2.423
   1.07773  0.02534 -0.02197 -1.08005  0.000705  0.000291  0.020472     2.419
   1.08275  0.03002 -0.02380 -1.09563  0.000763  0.000314  0.018975     2.430
   1.08845  0.03539 -0.02569 -1.11116  0.000818  0.000337  0.018008     2.427
   1.09493  0.04158 -0.02763 -1.12379  0.000892  0.000364  0.016326     2.450
   1.10237  0.04875 -0.02960 -1.13351  0.000976  0.000395  0.014687     2.473
   1.11095  0.05710 -0.03158 -1.13538  0.001110  0.000436  0.011941     2.547
   1.12083  0.06678 -0.03358 -1.13621  0.001222  0.000478  0.010713     2.559
   1.13204  0.07781 -0.03556 -1.13598  0.001342  0.000522  0.009619     2.571
   1.14448  0.09010 -0.03747 -1.13452  0.001473  0.000569  0.008597     2.587
   1.15809  0.10359 -0.03926 -1.13166  0.001615  0.000619  0.007626     2.609
   1.17266  0.11806 -0.04096 -1.12947  0.001738  0.000667  0.007102     2.606
   1.18781  0.13314 -0.04249 -1.12879  0.001837  0.000710  0.006865     2.587
   1.20335  0.14862 -0.04385 -1.12795  0.001948  0.000753  0.006474     2.586
   1.21923  0.16445 -0.04503 -1.12647  0.002069  0.000797  0.006011     2.597
   1.23540  0.18059 -0.04604 -1.12454  0.002193  0.000840  0.005583     2.609
   1.25175  0.19691 -0.04691 -1.12365  0.002285  0.000879  0.005419     2.599
   1.26813  0.21328 -0.04763 -1.12254  0.002386  0.000918  0.005177     2.600
   1.28457  0.22971 -0.04819 -1.12132  0.002487  0.000955  0.004938     2.604
   1.30115  0.24629 -0.04860 -1.11957  0.002601  0.000994  0.004646     2.617
   1.31783  0.26296 -0.04890 -1.11777  0.002709  0.001032  0.004406     2.626
   1.33448  0.27961 -0.04908 -1.11651  0.002796  0.001066  0.004282     2.622
   1.35110  0.29624 -0.04912 -1.11476  0.002900  0.001102  0.004076     2.632
   1.36778  0.31291 -0.04903 -1.11252  0.003017  0.001139  0.003830     2.649
   1.38450  0.32963 -0.04882 -1.11010  0.003135  0.001176  0.003606     2.666
   1.40120  0.34633 -0.04849 -1.10756  0.003252  0.001212  0.003402     2.682
   1.41786  0.36298 -0.04803 -1.10446  0.003389  0.001251  0.003149     2.709
   1.43449  0.37961 -0.04745 -1.10078  0.003547  0.001291  0.002859     2.747
   1.45114  0.39623 -0.04673 -1.09651  0.003731  0.001334  0.002538     2.796
   1.46777  0.41285 -0.04588 -1.09150  0.003957  0.001381  0.002165     2.866
   1.48439  0.42943 -0.04489 -1.08607  0.004216  0.001429  0.001788     2.951
   1.50097  0.44597 -0.04378 -1.08007  0.004543  0.001480  0.001365     3.069
   1.51751  0.46247 -0.04253 -1.07385  0.004948  0.001533  0.000926     3.227
   1.53401  0.47892 -0.04112 -1.06774  0.005464  0.001586  0.000485     3.446
   1.55050  0.49532 -0.03957 -1.06223  0.006113  0.001634  0.000089     3.740
   1.56702  0.51176 -0.03785 -1.05760  0.006908  0.001677 -0.000205     4.120
   1.58368  0.52831 -0.03597 -1.05366  0.007857  0.001715 -0.000368     4.582
   1.60055  0.54506 -0.03395 -1.05044  0.008931  0.001748 -0.000416     5.110
   1.61761  0.56199 -0.03181 -1.04793  0.010095  0.001776 -0.000411     5.684
   1.63483  0.57906 -0.02959 -1.04597  0.011320  0.001799 -0.000390     6.291
   1.65218  0.59626 -0.02732 -1.04443  0.012582  0.001819 -0.000372     6.916
   1.66962  0.61355 -0.02500 -1.04320  0.013851  0.001836 -0.000359     7.543
   1.68712  0.63090 -0.02268 -1.04217  0.015099  0.001851 -0.000349     8.155
   1.70462  0.64824 -0.02037 -1.04128  0.016303  0.001865 -0.000342     8.741
   1.72205  0.66552 -0.01809 -1.04050  0.017448  0.001878 -0.000336     9.292
   1.73939  0.68272 -0.01585 -1.03978  0.018520  0.001890 -0.000331     9.798
   1.75663  0.69982 -0.01367 -1.03910  0.019493  0.001903 -0.000326    10.246
   1.77378  0.71684 -0.01156 -1.03843  0.020352  0.001915 -0.000323    10.626
   1.79085  0.73379 -0.00953 -1.03775  0.021082  0.001929 -0.000319    10.930
   1.80784  0.75067 -0.00760 -1.03704  0.021671  0.001944 -0.000316    11.150
   1.82474  0.76746 -0.00576 -1.03629  0.022099  0.001960 -0.000313    11.276
   1.84154  0.78418 -0.00404 -1.03549  0.022345  0.001978 -0.000309    11.299
   1.85823  0.80079 -0.00245 -1.03460  0.022383  0.001998 -0.000306    11.204
   1.87481  0.81731 -0.00100 -1.03362  0.022178  0.002020 -0.000303    10.977
   1.89126  0.83371  0.00030 -1.03249  0.021673  0.002046 -0.000300    10.590
   1.90759  0.85000  0.00143 -1.02066  0.020938  0.002341 -0.000229     8.945
   1.92381  0.86619  0.00238 -0.99088  0.020044  0.003116 -0.000211     6.432
   1.93987  0.88223  0.00314 -0.96241  0.018855  0.003892 -0.000164     4.845
   1.95573  0.89808  0.00370 -0.93524  0.017489  0.004660  0.000024     3.753
   1.97131  0.91366  0.00404 -0.91546  0.016004  0.005232  0.000334     3.059
   1.98653  0.92887  0.00415 -0.90246  0.014493  0.005610  0.000698     2.583
   2.00124  0.94358  0.00401 -0.89603  0.013023  0.005798  0.001085     2.246
   2.01526  0.95760  0.00361 -0.89572  0.011632  0.005818  0.001589     1.999
   2.02837  0.97069  0.00296 -0.90127  0.010325  0.005695  0.002200     1.813
   2.04040  0.98268  0.00205 -0.91277  0.009088  0.005449  0.002898     1.668
   2.05125  0.99348  0.00090 -0.93120  0.007886  0.005090  0.003728     1.549
   2.05783  1.00000  0.00000 -0.92249  0.008167  0.005277  0.003633     1.548
   2.05783  1.00010 -0.00002  0.92249  0.054410  0.017537  0.000000     3.103
   2.06446  1.00660 -0.00134  0.92020  0.050021  0.017755  0.000000     2.817
   2.07221  1.01423 -0.00264  0.91748  0.047651  0.018004  0.000000     2.647
   2.08127  1.02319 -0.00403  0.91503  0.045265  0.018226  0.000000     2.484
   2.09186  1.03367 -0.00552  0.91303  0.042800  0.018403  0.000000     2.326
   2.10423  1.04593 -0.00713  0.91177  0.040204  0.018510  0.000000     2.172
   2.11869  1.06029 -0.00888  0.91159  0.037486  0.018525  0.000000     2.024
   2.13560  1.07709 -0.01077  0.91281  0.034690  0.018428  0.000000     1.883
   2.15535  1.09674 -0.01283  0.91565  0.031887  0.018210  0.000000     1.751
   2.17845  1.11972 -0.01505  0.92019  0.029168  0.017881  0.000000     1.631
   2.20544  1.14661 -0.01745  0.92627  0.026625  0.017465  0.000000     1.524
   2.23698  1.17805 -0.02004  0.93349  0.024330  0.016999  0.000000     1.431
   2.27386  1.21481 -0.02282  0.94132  0.022328  0.016525  0.000000     1.351
   2.31695  1.25781 -0.02580  0.94922  0.020628  0.016074  0.000000     1.283
   2.36732  1.30808 -0.02897  0.95674  0.019213  0.015666  0.000000     1.226
   2.42619  1.36685 -0.03233  0.96363  0.018051  0.015310  0.000000     1.179
   2.49501  1.43557 -0.03588  0.96977  0.017108  0.015006  0.000000     1.140
   2.57543  1.51591 -0.03960  0.97513  0.016351  0.014750  0.000000     1.109
   2.66944  1.60984 -0.04346  0.97974  0.015750  0.014536  0.000000     1.084
   2.77931  1.71964 -0.04745  0.98365  0.015278  0.014360  0.000000     1.064
   2.90773  1.84799 -0.05153  0.98690  0.014911  0.014215  0.000000     1.049
   3.05782  1.99803 -0.05566  0.99031  0.014595  0.014067  0.000000     1.037
