#    s        x        y     Ue/Vinf    Dstar     Theta      Cf       H
   0.00000  1.00000  0.00000  0.89876  0.039469  0.013453  0.000146     2.934
   0.00668  0.99360  0.00192  0.90327  0.036978  0.013127  0.000201     2.817
   0.01807  0.98272  0.00530  0.91044  0.034499  0.012638  0.000251     2.730
   0.03106  0.97032  0.00914  0.91933  0.031980  0.012071  0.000307     2.649
   0.04516  0.95680  0.01317  0.92955  0.029680  0.011466  0.000359     2.589
   0.06006  0.94246  0.01720  0.94071  0.027729  0.010853  0.000400     2.555
   0.07565  0.92739  0.02118  0.95256  0.026153  0.010246  0.000420     2.552
   0.09186  0.91167  0.02516  0.96518  0.024896  0.009643  0.000416     2.582
   0.10852  0.89549  0.02915  0.97877  0.023887  0.009036  0.000388     2.643
   0.12544  0.87905  0.03313  0.99354  0.023103  0.008419  0.000334     2.744
   0.14250  0.86245  0.03708  1.00988  0.022527  0.007779  0.000259     2.896
   0.15964  0.84577  0.04099  1.02844  0.022139  0.007099  0.000178     3.118
   0.17681  0.82904  0.04484  1.05011  0.021909  0.006358  0.000070     3.446
   0.19398  0.81229  0.04864  1.07684  0.021785  0.005508 -0.000061     3.955
   0.21115  0.79553  0.05238  1.10804  0.021724  0.004596 -0.000161     4.727
   0.22833  0.77875  0.05606  1.14221  0.021665  0.003682 -0.000210     5.884
   0.24546  0.76200  0.05967  1.18180  0.021481  0.002720 -0.000264     7.897
   0.26249  0.74535  0.06319  1.23177  0.020979  0.001627 -0.000328    12.898
   0.27941  0.72877  0.06660  1.22730  0.020700  0.001723 -0.000418    12.015
   0.29629  0.71222  0.06990  1.22806  0.020084  0.001710 -0.000422    11.742
   0.31313  0.69568  0.07308  1.22876  0.019294  0.001700 -0.000427    11.351
   0.32994  0.67915  0.07616  1.22943  0.018381  0.001690 -0.000431    10.877
   0.34670  0.66266  0.07911  1.23012  0.017379  0.001680 -0.000436    10.342
   0.36339  0.64620  0.08193  1.23085  0.016320  0.001671 -0.000442     9.767
   0.38005  0.62976  0.08462  1.23167  0.015238  0.001661 -0.000449     9.177
   0.39672  0.61329  0.08718  1.23262  0.014144  0.001649 -0.000457     8.577
   0.41338  0.59681  0.08962  1.23374  0.013041  0.001636 -0.000468     7.969
   0.42997  0.58038  0.09191  1.23509  0.011948  0.001622 -0.000481     7.367
   0.44649  0.56400  0.09406  1.23674  0.010894  0.001605 -0.000499     6.788
   0.46301  0.54760  0.09605  1.23879  0.009891  0.001585 -0.000521     6.240
   0.47954  0.53117  0.09790  1.24136  0.008939  0.001562 -0.000548     5.723
   0.49603  0.51477  0.09961  1.24453  0.008032  0.001535 -0.000565     5.231
   0.51242  0.49845  0.10115  1.24843  0.007202  0.001505 -0.000552     4.785
   0.52875  0.48218  0.10252  1.25314  0.006466  0.001471 -0.000467     4.397
   0.54509  0.46588  0.10371  1.25859  0.005819  0.001433 -0.000278     4.060
   0.56144  0.44957  0.10475  1.26480  0.005242  0.001393  0.000036     3.764
   0.57774  0.43329  0.10561  1.27189  0.004736  0.001348  0.000472     3.514
   0.59394  0.41711  0.10630  1.27964  0.004310  0.001301  0.000985     3.314
   0.61007  0.40098  0.10679  1.28770  0.003954  0.001252  0.001538     3.157
   0.62617  0.38489  0.10708  1.29573  0.003657  0.001204  0.002096     3.037
   0.64227  0.36879  0.10718  1.30341  0.003411  0.001158  0.002629     2.946
   0.65836  0.35270  0.10708  1.31087  0.003186  0.001112  0.003202     2.865
   0.67432  0.33674  0.10680  1.31808  0.002971  0.001067  0.003866     2.784
   0.69010  0.32097  0.10629  1.32434  0.002785  0.001024  0.004518     2.718
   0.70583  0.30526  0.10554  1.32880  0.002653  0.000987  0.004948     2.687
   0.72167  0.28945  0.10454  1.33261  0.002536  0.000951  0.005336     2.666
   0.73747  0.27369  0.10335  1.33674  0.002396  0.000913  0.005952     2.625
   0.75302  0.25820  0.10195  1.34056  0.002241  0.000873  0.006826     2.566
   0.76841  0.24291  0.10027  1.34122  0.002140  0.000841  0.007326     2.545
   0.78386  0.22758  0.09831  1.34019  0.002066  0.000812  0.007583     2.545
   0.79934  0.21226  0.09610  1.33967  0.001971  0.000779  0.008092     2.529
   0.81467  0.19713  0.09366  1.33845  0.001871  0.000747  0.008722     2.507
   0.82983  0.18221  0.09095  1.33538  0.001789  0.000716  0.009194     2.498
   0.84493  0.16741  0.08797  1.33105  0.001718  0.000687  0.009489     2.503
   0.85995  0.15275  0.08473  1.32691  0.001636  0.000655  0.009968     2.500
   0.87475  0.13836  0.08125  1.32231  0.001547  0.000621  0.010605     2.491
   0.88915  0.12444  0.07757  1.31694  0.001445  0.000586  0.011622     2.465
   0.90314  0.11101  0.07364  1.30823  0.001363  0.000554  0.012332     2.458
   0.91683  0.09797  0.06946  1.29749  0.001303  0.000524  0.012427     2.486
   0.92993  0.08560  0.06517  1.28937  0.001205  0.000488  0.013544     2.471
   0.94206  0.07425  0.06087  1.27905  0.001084  0.000450  0.015936     2.408
   0.95332  0.06387  0.05649  1.25928  0.001023  0.000424  0.016507     2.416
   0.96371  0.05444  0.05215  1.23998  0.000976  0.000397  0.016319     2.458
   0.97301  0.04611  0.04801  1.22566  0.000891  0.000364  0.017881     2.445
   0.98119  0.03891  0.04412  1.20861  0.000807  0.000334  0.020014     2.418
   0.98837  0.03273  0.04046  1.18666  0.000739  0.000307  0.021720     2.405
   0.99470  0.02743  0.03701  1.16139  0.000677  0.000283  0.023608     2.388
   1.00030  0.02288  0.03375  1.13186  0.000620  0.000262  0.025584     2.369
   1.00527  0.01898  0.03066  1.09774  0.000573  0.000242  0.026959     2.363
   1.00973  0.01561  0.02774  1.06029  0.000526  0.000224  0.028815     2.347
   1.01375  0.01272  0.02495  1.01714  0.000484  0.000208  0.030403     2.333
   1.01739  0.01024  0.02228  0.96770  0.000446  0.000193  0.031863     2.316
   1.02073  0.00811  0.01971  0.91011  0.000412  0.000180  0.033214     2.291
   1.02380  0.00630  0.01724  0.84610  0.000391  0.000169  0.031853     2.310
   1.02664  0.00476  0.01485  0.77675  0.000355  0.000157  0.034005     2.254
   1.02926  0.00350  0.01255  0.69696  0.000346  0.000151  0.029864     2.296
   1.03171  0.00246  0.01033  0.61421  0.000313  0.000141  0.031089     2.226
   1.03400  0.00163  0.00819  0.52008  0.000313  0.000138  0.024910     2.276
   1.03618  0.00098  0.00612  0.42745  0.000288  0.000129  0.023256     2.231
   1.03826  0.00048  0.00410  0.32306  0.000281  0.000125  0.017361     2.255
   1.04024  0.00015  0.00214  0.21382  0.000254  0.000113  0.012555     2.246
   1.04215  0.00001  0.00024  0.08232  0.000233  0.000104  0.004789     2.230
   1.04400  0.00012 -0.00161 -0.06169  0.000233  0.000104  0.005165     2.230
   1.04587  0.00052 -0.00343 -0.21451  0.000223  0.000100  0.016333     2.224
   1.04780  0.00123 -0.00524 -0.36052  0.000241  0.000107  0.024157     2.257
   1.04986  0.00223 -0.00703 -0.48880  0.000260  0.000115  0.030235     2.250
   1.05205  0.00354 -0.00879 -0.60176  0.000283  0.000125  0.033328     2.271
   1.05438  0.00514 -0.01048 -0.68704  0.000324  0.000140  0.031791     2.313
   1.05689  0.00705 -0.01212 -0.75080  0.000367  0.000158  0.030206     2.327
   1.05960  0.00924 -0.01371 -0.79479  0.000426  0.000179  0.026179     2.376
   1.06254  0.01171 -0.01530 -0.83207  0.000468  0.000199  0.025427     2.356
   1.06576  0.01450 -0.01689 -0.86497  0.000516  0.000218  0.023654     2.368
   1.06931  0.01766 -0.01852 -0.89427  0.000563  0.000237  0.022313     2.372
   1.07328  0.02125 -0.02021 -0.92051  0.000614  0.000258  0.020846     2.381
   1.07773  0.02534 -0.02197 -0.94737  0.000655  0.000277  0.020382     2.367
   1.08275  0.03002 -0.02380 -0.97232  0.000709  0.000298  0.019102     2.379
   1.08845  0.03539 -0.02569 -0.99548  0.000765  0.000320  0.017978     2.387
   1.09493  0.04158 -0.02763 -1.01635  0.000829  0.000346  0.016691     2.401
   1.10237  0.04875 -0.02960 -1.03238  0.000916  0.000376  0.014831     2.434
   1.11095  0.05710 -0.03158 -1.04301  0.001023  0.000413  0.012884     2.473
   1.12083  0.06678 -0.03358 -1.04973  0.001140  0.000455  0.011261     2.503
   1.13204  0.07781 -0.03556 -1.05606  0.001244  0.000497  0.010396     2.501
   1.14448  0.09010 -0.03747 -1.06046  0.001365  0.000542  0.009345     2.517
   1.15809  0.10359 -0.03926 -1.06291  0.001496  0.000590  0.008372     2.536
   1.17266  0.11806 -0.04096 -1.06550  0.001610  0.000635  0.007830     2.533
   1.18781  0.13314 -0.04249 -1.06922  0.001702  0.000676  0.007576     2.515
   1.20335  0.14862 -0.04385 -1.07177  0.001814  0.000719  0.007063     2.524
   1.21923  0.16445 -0.04503 -1.07390  0.001920  0.000759  0.006659     2.528
   1.23540  0.18059 -0.04604 -1.07449  0.002044  0.000802  0.006119     2.548
   1.25175  0.19691 -0.04691 -1.07622  0.002128  0.000839  0.005968     2.536
   1.26813  0.21328 -0.04763 -1.07757  0.002220  0.000876  0.005726     2.536
   1.28457  0.22971 -0.04819 -1.07830  0.002321  0.000912  0.005436     2.544
   1.30115  0.24629 -0.04860 -1.07853  0.002424  0.000949  0.005149     2.554
   1.31783  0.26296 -0.04890 -1.07863  0.002522  0.000985  0.004914     2.560
   1.33448  0.27961 -0.04908 -1.07911  0.002602  0.001018  0.004787     2.557
   1.35110  0.29624 -0.04912 -1.07893  0.002699  0.001052  0.004569     2.566
   1.36778  0.31291 -0.04903 -1.07813  0.002807  0.001087  0.004313     2.581
   1.38450  0.32963 -0.04882 -1.07736  0.002905  0.001121  0.004123     2.590
   1.40120  0.34633 -0.04849 -1.07614  0.003011  0.001156  0.003909     2.605
   1.41786  0.36298 -0.04803 -1.07465  0.003120  0.001191  0.003703     2.620
   1.43449  0.37961 -0.04745 -1.07224  0.003259  0.001229  0.003411     2.651
   1.45114  0.39623 -0.04673 -1.06933  0.003407  0.001269  0.003124     2.685
   1.46777  0.41285 -0.04588 -1.06565  0.003584  0.001311  0.002790     2.733
   1.48439  0.42943 -0.04489 -1.06133  0.003786  0.001356  0.002439     2.792
   1.50097  0.44597 -0.04378 -1.05625  0.004034  0.001405  0.002043     2.872
   1.51751  0.46247 -0.04253 -1.05046  0.004345  0.001457  0.001605     2.982
   1.53401  0.47892 -0.04112 -1.04420  0.004739  0.001512  0.001133     3.134
   1.55050  0.49532 -0.03957 -1.03784  0.005251  0.001568  0.000646     3.349
   1.56702  0.51176 -0.03785 -1.03200  0.005896  0.001621  0.000205     3.638
   1.58368  0.52831 -0.03597 -1.02707  0.006695  0.001667 -0.000136     4.017
   1.60055  0.54506 -0.03395 -1.02292  0.007622  0.001707 -0.000329     4.465
   1.61761  0.56199 -0.03181 -1.01945  0.008646  0.001744 -0.000398     4.959
   1.63483  0.57906 -0.02959 -1.01668  0.009744  0.001775 -0.000402     5.491
   1.65218  0.59626 -0.02732 -1.01449  0.010894  0.001801 -0.000385     6.047
   1.66962  0.61355 -0.02500 -1.01273  0.012070  0.001824 -0.000367     6.616
   1.68712  0.63090 -0.02268 -1.01129  0.013242  0.001845 -0.000353     7.178
   1.70462  0.64824 -0.02037 -1.01007  0.014392  0.001863 -0.000342     7.726
   1.72205  0.66552 -0.01809 -1.00903  0.015504  0.001879 -0.000334     8.250
   1.73939  0.68272 -0.01585 -1.00810  0.016562  0.001895 -0.000327     8.742
   1.75663  0.69982 -0.01367 -1.00725  0.017548  0.001909 -0.000321     9.190
   1.77378  0.71684 -0.01156 -1.00645  0.018442  0.001924 -0.000316     9.585
   1.79085  0.73379 -0.00953 -1.00568  0.019233  0.001939 -0.000312     9.919
   1.80784  0.75067 -0.00760 -1.00490  0.019911  0.001955 -0.000308    10.187
   1.82474  0.76746 -0.00576 -1.00411  0.020460  0.001971 -0.000305    10.381
   1.84154  0.78418 -0.00404 -1.00329  0.020864  0.001988 -0.000301    10.492
   1.85823  0.80079 -0.00245 -1.00243  0.021105  0.002007 -0.000298    10.513
   1.87481  0.81731 -0.00100 -1.00150  0.021163  0.002028 -0.000295    10.434
   1.89126  0.83371  0.00030 -1.00049  0.021010  0.002051 -0.000292    10.242
   1.90759  0.85000  0.00143 -0.99936  0.020616  0.002077 -0.000290     9.926
   1.92381  0.86619  0.00238 -0.99808  0.019930  0.002106 -0.000287     9.463
   1.93987  0.88223  0.00314 -0.98716  0.019012  0.002368 -0.000215     8.030
   1.95573  0.89808  0.00370 -0.95895  0.017922  0.003066 -0.000198     5.846
   1.97131  0.91366  0.00404 -0.93080  0.016570  0.003788 -0.000126     4.375
   1.98653  0.92887  0.00415 -0.90717  0.015045  0.004407  0.000169     3.414
   2.00124  0.94358  0.00401 -0.89160  0.013452  0.004818  0.000596     2.792
   2.01526  0.95760  0.00361 -0.88365  0.011896  0.005026  0.001086     2.367
   2.02837  0.97069  0.00296 -0.88316  0.010426  0.005049  0.001621     2.065
   2.04040  0.98268  0.00205 -0.88988  0.009055  0.004913  0.002253     1.843
   2.05125  0.99348  0.00090 -0.90422  0.007765  0.004643  0.003130     1.672
   2.05783  1.00000  0.00000 -0.89876  0.007859  0.004760  0.003159     1.651
   2.05783  1.00010 -0.00002  0.89876  0.047319  0.018210  0.000000     2.599
   2.06446  1.00660 -0.00133  0.90064  0.043202  0.018039  0.000000     2.395
   2.07221  1.01424 -0.00263  0.90063  0.040971  0.018039  0.000000     2.271
   2.08127  1.02319 -0.00400  0.90094  0.038771  0.018012  0.000000     2.153
   2.09186  1.03368 -0.00547  0.90178  0.036550  0.017942  0.000000     2.037
   2.10423  1.04595 -0.00704  0.90340  0.034274  0.017813  0.000000     1.924
   2.11869  1.06031 -0.00874  0.90605  0.031955  0.017611  0.000000     1.814
   2.13560  1.07712 -0.01056  0.90989  0.029634  0.017333  0.000000     1.710
   2.15535  1.09677 -0.01253  0.91496  0.027367  0.016982  0.000000     1.611
   2.17845  1.11977 -0.01464  0.92117  0.025212  0.016577  0.000000     1.521
   2.20544  1.14667 -0.01690  0.92828  0.023226  0.016139  0.000000     1.439
   2.23698  1.17812 -0.01930  0.93591  0.021447  0.015695  0.000000     1.367
   2.27386  1.21490 -0.02184  0.94367  0.019893  0.015268  0.000000     1.303
   2.31695  1.25792 -0.02452  0.95121  0.018561  0.014875  0.000000     1.248
   2.36732  1.30821 -0.02730  0.95827  0.017439  0.014524  0.000000     1.201
   2.42619  1.36701 -0.03018  0.96470  0.016504  0.014218  0.000000     1.161
   2.49501  1.43576 -0.03312  0.97045  0.015733  0.013955  0.000000     1.127
   2.57543  1.51613 -0.03607  0.97550  0.015104  0.013730  0.000000     1.100
   2.66944  1.61009 -0.03899  0.97987  0.014597  0.013540  0.000000     1.078
   2.77931  1.71993 -0.04181  0.98360  0.014192  0.013382  0.000000     1.061
   2.90773  1.84832 -0.04444  0.98674  0.013872  0.013251  0.000000     1.047
   3.05782  1.99840 -0.04679  0.99000  0.013595  0.013117  0.000000     1.036
