#    s        x        y     Ue/Vinf    Dstar     Theta      Cf       H
   0.00000  1.00000  0.00000  0.89352  0.038157  0.013817  0.000190     2.762
   0.00668  0.99360  0.00192  0.89858  0.035658  0.013452  0.000249     2.651
   0.01807  0.98272  0.00530  0.90626  0.033130  0.012931  0.000307     2.562
   0.03106  0.97032  0.00914  0.91575  0.030560  0.012329  0.000374     2.479
   0.04516  0.95680  0.01317  0.92658  0.028210  0.011694  0.000443     2.412
   0.06006  0.94246  0.01720  0.93824  0.026212  0.011061  0.000501     2.370
   0.07565  0.92739  0.02118  0.95039  0.024592  0.010449  0.000541     2.354
   0.09186  0.91167  0.02516  0.96303  0.023292  0.009857  0.000557     2.363
   0.10852  0.89549  0.02915  0.97630  0.022238  0.009276  0.000549     2.397
   0.12544  0.87905  0.03313  0.99030  0.021408  0.008703  0.000513     2.460
   0.14250  0.86245  0.03708  1.00530  0.020788  0.008127  0.000450     2.558
   0.15964  0.84577  0.04099  1.02176  0.020366  0.007534  0.000357     2.703
   0.17681  0.82904  0.04484  1.04040  0.020122  0.006903  0.000260     2.915
   0.19398  0.81229  0.04864  1.06221  0.020032  0.006212  0.000137     3.225
   0.21115  0.79553  0.05238  1.08849  0.020066  0.005435 -0.000010     3.692
   0.22833  0.77875  0.05606  1.12214  0.020136  0.004517 -0.000154     4.458
   0.24546  0.76200  0.05967  1.15879  0.020200  0.003602 -0.000220     5.607
   0.26249  0.74535  0.06319  1.20072  0.020144  0.002653 -0.000274     7.594
   0.27941  0.72877  0.06660  1.25318  0.019778  0.001581 -0.000338    12.511
   0.29629  0.71222  0.06990  1.24657  0.019603  0.001715 -0.000429    11.428
   0.31313  0.69568  0.07308  1.24744  0.019065  0.001702 -0.000433    11.203
   0.32994  0.67915  0.07616  1.24825  0.018349  0.001690 -0.000438    10.858
   0.34670  0.66266  0.07911  1.24902  0.017502  0.001679 -0.000443    10.424
   0.36339  0.64620  0.08193  1.24981  0.016569  0.001668 -0.000448     9.931
   0.38005  0.62976  0.08462  1.25066  0.015589  0.001658 -0.000455     9.404
   0.39672  0.61329  0.08718  1.25161  0.014570  0.001646 -0.000462     8.851
   0.41338  0.59681  0.08962  1.25268  0.013526  0.001634 -0.000471     8.279
   0.42997  0.58038  0.09191  1.25394  0.012473  0.001620 -0.000483     7.699
   0.44649  0.56400  0.09406  1.25545  0.011442  0.001604 -0.000498     7.132
   0.46301  0.54760  0.09605  1.25729  0.010450  0.001586 -0.000516     6.588
   0.47954  0.53117  0.09790  1.25956  0.009491  0.001565 -0.000540     6.063
   0.49603  0.51477  0.09961  1.26235  0.008566  0.001541 -0.000568     5.558
   0.51242  0.49845  0.10115  1.26579  0.007710  0.001514 -0.000581     5.093
   0.52875  0.48218  0.10252  1.26999  0.006936  0.001483 -0.000557     4.678
   0.54509  0.46588  0.10371  1.27501  0.006243  0.001447 -0.000454     4.313
   0.56144  0.44957  0.10475  1.28074  0.005618  0.001410 -0.000236     3.986
   0.57774  0.43329  0.10561  1.28727  0.005065  0.001368  0.000112     3.701
   0.59394  0.41711  0.10630  1.29465  0.004585  0.001323  0.000577     3.464
   0.61007  0.40098  0.10679  1.30257  0.004191  0.001276  0.001091     3.283
   0.62617  0.38489  0.10708  1.31081  0.003852  0.001229  0.001661     3.135
   0.64227  0.36879  0.10718  1.31889  0.003577  0.001182  0.002205     3.027
   0.65836  0.35270  0.10708  1.32684  0.003330  0.001135  0.002784     2.933
   0.67432  0.33674  0.10680  1.33474  0.003090  0.001089  0.003478     2.838
   0.69010  0.32097  0.10629  1.34168  0.002891  0.001045  0.004133     2.766
   0.70583  0.30526  0.10554  1.34716  0.002740  0.001006  0.004633     2.724
   0.72167  0.28945  0.10454  1.35148  0.002626  0.000970  0.004961     2.706
   0.73747  0.27369  0.10335  1.35692  0.002463  0.000929  0.005694     2.651
   0.75302  0.25820  0.10195  1.36127  0.002311  0.000890  0.006495     2.596
   0.76841  0.24291  0.10027  1.36313  0.002201  0.000857  0.007043     2.569
   0.78386  0.22758  0.09831  1.36319  0.002122  0.000826  0.007325     2.567
   0.79934  0.21226  0.09610  1.36362  0.002025  0.000794  0.007812     2.552
   0.81467  0.19713  0.09366  1.36358  0.001923  0.000760  0.008432     2.529
   0.82983  0.18221  0.09095  1.36204  0.001832  0.000729  0.008984     2.515
   0.84493  0.16741  0.08797  1.35878  0.001764  0.000699  0.009224     2.524
   0.85995  0.15275  0.08473  1.35619  0.001678  0.000666  0.009734     2.519
   0.87475  0.13836  0.08125  1.35298  0.001592  0.000633  0.010270     2.515
   0.88915  0.12444  0.07757  1.34992  0.001481  0.000596  0.011416     2.483
   0.90314  0.11101  0.07364  1.34306  0.001398  0.000564  0.012091     2.478
   0.91683  0.09797  0.06946  1.33450  0.001339  0.000534  0.012139     2.509
   0.92993  0.08560  0.06517  1.32916  0.001231  0.000496  0.013516     2.483
   0.94206  0.07425  0.06087  1.32069  0.001114  0.000459  0.015693     2.428
   0.95332  0.06387  0.05649  1.30430  0.001052  0.000431  0.016257     2.438
   0.96371  0.05444  0.05215  1.28862  0.000999  0.000404  0.016249     2.476
   0.97301  0.04611  0.04801  1.27733  0.000914  0.000371  0.017808     2.465
   0.98119  0.03891  0.04412  1.26388  0.000829  0.000340  0.019943     2.440
   0.98837  0.03273  0.04046  1.24612  0.000758  0.000313  0.021762     2.426
   0.99470  0.02743  0.03701  1.22517  0.000691  0.000288  0.024056     2.403
   1.00030  0.02288  0.03375  1.19937  0.000635  0.000266  0.025894     2.390
   1.00527  0.01898  0.03066  1.17005  0.000583  0.000246  0.027877     2.376
   1.00973  0.01561  0.02774  1.13612  0.000535  0.000227  0.030065     2.356
   1.01375  0.01272  0.02495  1.09643  0.000494  0.000211  0.031755     2.343
   1.01739  0.01024  0.02228  1.05126  0.000456  0.000196  0.033536     2.326
   1.02073  0.00811  0.01971  0.99916  0.000423  0.000183  0.034720     2.312
   1.02380  0.00630  0.01724  0.94163  0.000396  0.000171  0.034803     2.315
   1.02664  0.00476  0.01485  0.87719  0.000362  0.000159  0.036870     2.275
   1.02926  0.00350  0.01255  0.80106  0.000345  0.000151  0.034981     2.280
   1.03171  0.00246  0.01033  0.72003  0.000323  0.000143  0.034485     2.250
   1.03400  0.00163  0.00819  0.62970  0.000313  0.000139  0.031164     2.244
   1.03618  0.00098  0.00612  0.54254  0.000304  0.000133  0.026256     2.290
   1.03826  0.00048  0.00410  0.44868  0.000272  0.000122  0.025626     2.231
   1.04024  0.00015  0.00214  0.33695  0.000267  0.000119  0.018810     2.250
   1.04215  0.00001  0.00024  0.22156  0.000244  0.000109  0.013175     2.247
   1.04400  0.00012 -0.00161  0.08230  0.000222  0.000100  0.004607     2.230
   1.04587  0.00052 -0.00343 -0.07674  0.000222  0.000100  0.006857     2.230
   1.04780  0.00123 -0.00524 -0.22562  0.000240  0.000107  0.015969     2.243
   1.04986  0.00223 -0.00703 -0.35985  0.000257  0.000115  0.023130     2.242
   1.05205  0.00354 -0.00879 -0.48070  0.000277  0.000123  0.027883     2.257
   1.05438  0.00514 -0.01048 -0.57838  0.000311  0.000136  0.028766     2.288
   1.05689  0.00705 -0.01212 -0.64612  0.000366  0.000156  0.025938     2.337
   1.05960  0.00924 -0.01371 -0.69746  0.000412  0.000177  0.024843     2.334
   1.06254  0.01171 -0.01530 -0.74398  0.000451  0.000194  0.024400     2.325
   1.06576  0.01450 -0.01689 -0.78363  0.000499  0.000212  0.022715     2.346
   1.06931  0.01766 -0.01852 -0.81782  0.000546  0.000232  0.021432     2.355
   1.07328  0.02125 -0.02021 -0.84937  0.000593  0.000252  0.020438     2.357
   1.07773  0.02534 -0.02197 -0.88090  0.000634  0.000270  0.019972     2.349
   1.08275  0.03002 -0.02380 -0.90977  0.000688  0.000291  0.018708     2.364
   1.08845  0.03539 -0.02569 -0.93831  0.000735  0.000312  0.018143     2.359
   1.09493  0.04158 -0.02763 -0.96224  0.000808  0.000338  0.016403     2.391
   1.10237  0.04875 -0.02960 -0.98261  0.000884  0.000367  0.015040     2.408
   1.11095  0.05710 -0.03158 -0.99673  0.000990  0.000404  0.013006     2.452
   1.12083  0.06678 -0.03358 -1.00667  0.001103  0.000445  0.011453     2.478
   1.13204  0.07781 -0.03556 -1.01673  0.001198  0.000485  0.010757     2.469
   1.14448  0.09010 -0.03747 -1.02409  0.001319  0.000530  0.009620     2.490
   1.15809  0.10359 -0.03926 -1.02879  0.001450  0.000577  0.008581     2.512
   1.17266  0.11806 -0.04096 -1.03436  0.001549  0.000620  0.008206     2.498
   1.18781  0.13314 -0.04249 -1.03973  0.001650  0.000662  0.007780     2.493
   1.20335  0.14862 -0.04385 -1.04444  0.001752  0.000702  0.007354     2.495
   1.21923  0.16445 -0.04503 -1.04801  0.001860  0.000743  0.006883     2.504
   1.23540  0.18059 -0.04604 -1.05042  0.001973  0.000784  0.006411     2.517
   1.25175  0.19691 -0.04691 -1.05298  0.002066  0.000821  0.006146     2.515
   1.26813  0.21328 -0.04763 -1.05580  0.002147  0.000856  0.005977     2.508
   1.28457  0.22971 -0.04819 -1.05773  0.002244  0.000892  0.005688     2.516
   1.30115  0.24629 -0.04860 -1.05867  0.002352  0.000929  0.005339     2.532
   1.31783  0.26296 -0.04890 -1.05989  0.002439  0.000963  0.005148     2.533
   1.33448  0.27961 -0.04908 -1.06119  0.002518  0.000995  0.005007     2.531
   1.35110  0.29624 -0.04912 -1.06196  0.002608  0.001028  0.004806     2.537
   1.36778  0.31291 -0.04903 -1.06201  0.002710  0.001062  0.004554     2.551
   1.38450  0.32963 -0.04882 -1.06197  0.002805  0.001096  0.004358     2.560
   1.40120  0.34633 -0.04849 -1.06168  0.002899  0.001129  0.004174     2.569
   1.41786  0.36298 -0.04803 -1.06070  0.003010  0.001163  0.003933     2.588
   1.43449  0.37961 -0.04745 -1.05925  0.003128  0.001199  0.003691     2.609
   1.45114  0.39623 -0.04673 -1.05714  0.003262  0.001237  0.003417     2.638
   1.46777  0.41285 -0.04588 -1.05421  0.003420  0.001277  0.003100     2.678
   1.48439  0.42943 -0.04489 -1.05063  0.003598  0.001320  0.002768     2.727
   1.50097  0.44597 -0.04378 -1.04621  0.003814  0.001366  0.002394     2.792
   1.51751  0.46247 -0.04253 -1.04101  0.004079  0.001416  0.001978     2.880
   1.53401  0.47892 -0.04112 -1.03501  0.004420  0.001471  0.001505     3.006
   1.55050  0.49532 -0.03957 -1.02861  0.004856  0.001527  0.001010     3.179
   1.56702  0.51176 -0.03785 -1.02226  0.005421  0.001584  0.000515     3.422
   1.58368  0.52831 -0.03597 -1.01663  0.006127  0.001636  0.000091     3.745
   1.60055  0.54506 -0.03395 -1.01195  0.006956  0.001681 -0.000199     4.138
   1.61761  0.56199 -0.03181 -1.00795  0.007886  0.001721 -0.000348     4.581
   1.63483  0.57906 -0.02959 -1.00463  0.008893  0.001757 -0.000395     5.060
   1.65218  0.59626 -0.02732 -1.00195  0.009953  0.001789 -0.000393     5.565
   1.66962  0.61355 -0.02500 -0.99978  0.011049  0.001816 -0.000376     6.085
   1.68712  0.63090 -0.02268 -0.99801  0.012149  0.001840 -0.000359     6.604
   1.70462  0.64824 -0.02037 -0.99651  0.013237  0.001861 -0.000346     7.113
   1.72205  0.66552 -0.01809 -0.99524  0.014296  0.001880 -0.000336     7.602
   1.73939  0.68272 -0.01585 -0.99413  0.015316  0.001898 -0.000327     8.068
   1.75663  0.69982 -0.01367 -0.99313  0.016271  0.001915 -0.000321     8.495
   1.77378  0.71684 -0.01156 -0.99220  0.017148  0.001932 -0.000315     8.877
   1.79085  0.73379 -0.00953 -0.99132  0.017933  0.001948 -0.000310     9.204
   1.80784  0.75067 -0.00760 -0.99045  0.018620  0.001965 -0.000306     9.476
   1.82474  0.76746 -0.00576 -0.98959  0.019192  0.001982 -0.000302     9.681
   1.84154  0.78418 -0.00404 -0.98871  0.019635  0.002001 -0.000298     9.814
   1.85823  0.80079 -0.00245 -0.98780  0.019934  0.002020 -0.000295     9.869
   1.87481  0.81731 -0.00100 -0.98685  0.020073  0.002041 -0.000292     9.837
   1.89126  0.83371  0.00030 -0.98582  0.020029  0.002063 -0.000289     9.707
   1.90759  0.85000  0.00143 -0.98471  0.019782  0.002088 -0.000286     9.474
   1.92381  0.86619  0.00238 -0.98348  0.019304  0.002115 -0.000284     9.125
   1.93987  0.88223  0.00314 -0.98210  0.018565  0.002146 -0.000282     8.652
   1.95573  0.89808  0.00370 -0.97729  0.017537  0.002253 -0.000212     7.784
   1.97131  0.91366  0.00404 -0.94936  0.016376  0.002899 -0.000192     5.649
   1.98653  0.92887  0.00415 -0.92092  0.014944  0.003576 -0.000093     4.179
   2.00124  0.94358  0.00401 -0.89905  0.013352  0.004103  0.000295     3.254
   2.01526  0.95760  0.00361 -0.88619  0.011733  0.004411  0.000834     2.660
   2.02837  0.97069  0.00296 -0.88180  0.010178  0.004518  0.001459     2.253
   2.04040  0.98268  0.00205 -0.88564  0.008726  0.004450  0.002176     1.961
   2.05125  0.99348  0.00090 -0.89803  0.007375  0.004233  0.003056     1.742
   2.05783  1.00000  0.00000 -0.89352  0.007398  0.004326  0.003065     1.710
   2.05783  1.00010 -0.00002  0.89352  0.045535  0.018137  0.000000     2.511
   2.06446  1.00660 -0.00133  0.89637  0.041487  0.017882  0.000000     2.320
   2.07221  1.01424 -0.00262  0.89701  0.039291  0.017827  0.000000     2.204
   2.08127  1.02319 -0.00398  0.89799  0.037140  0.017745  0.000000     2.093
   2.09186  1.03368 -0.00543  0.89949  0.034984  0.017623  0.000000     1.985
   2.10423  1.04596 -0.00699  0.90177  0.032790  0.017446  0.000000     1.880
   2.11869  1.06032 -0.00866  0.90505  0.030574  0.017203  0.000000     1.777
   2.13560  1.07713 -0.01045  0.90943  0.028372  0.016893  0.000000     1.679
   2.15535  1.09679 -0.01236  0.91495  0.026234  0.016525  0.000000     1.588
   2.17845  1.11980 -0.01441  0.92146  0.024214  0.016113  0.000000     1.503
   2.20544  1.14670 -0.01658  0.92871  0.022357  0.015681  0.000000     1.426
   2.23698  1.17816 -0.01888  0.93634  0.020694  0.015250  0.000000     1.357
   2.27386  1.21495 -0.02128  0.94404  0.019240  0.014840  0.000000     1.296
   2.31695  1.25798 -0.02378  0.95144  0.017990  0.014465  0.000000     1.244
   2.36732  1.30828 -0.02635  0.95837  0.016932  0.014130  0.000000     1.198
   2.42619  1.36710 -0.02895  0.96469  0.016046  0.013837  0.000000     1.160
   2.49501  1.43586 -0.03154  0.97034  0.015313  0.013584  0.000000     1.127
   2.57543  1.51625 -0.03406  0.97532  0.014711  0.013369  0.000000     1.100
   2.66944  1.61022 -0.03643  0.97964  0.014222  0.013185  0.000000     1.079
   2.77931  1.72007 -0.03858  0.98335  0.013830  0.013030  0.000000     1.061
   2.90773  1.84848 -0.04038  0.98648  0.013518  0.012902  0.000000     1.048
   3.05782  1.99857 -0.04171  0.98973  0.013247  0.012771  0.000000     1.037
