#    s        x        y     Ue/Vinf    Dstar     Theta      Cf       H
   0.00000  1.00000  0.00000  0.89162  0.035919  0.014563  0.000349     2.467
   0.00668  0.99360  0.00192  0.89814  0.033358  0.014096  0.000434     2.366
   0.01807  0.98272  0.00530  0.90719  0.030760  0.013490  0.000529     2.280
   0.03106  0.97032  0.00914  0.91834  0.028118  0.012799  0.000646     2.197
   0.04516  0.95680  0.01317  0.93089  0.025696  0.012085  0.000774     2.126
   0.06006  0.94246  0.01720  0.94406  0.023625  0.011396  0.000898     2.073
   0.07565  0.92739  0.02118  0.95735  0.021922  0.010755  0.001004     2.038
   0.09186  0.91167  0.02516  0.97066  0.020521  0.010160  0.001089     2.020
   0.10852  0.89549  0.02915  0.98412  0.019341  0.009600  0.001151     2.015
   0.12544  0.87905  0.03313  0.99764  0.018359  0.009075  0.001186     2.023
   0.14250  0.86245  0.03708  1.01122  0.017559  0.008580  0.001189     2.046
   0.15964  0.84577  0.04099  1.02494  0.016929  0.008111  0.001155     2.087
   0.17681  0.82904  0.04484  1.03901  0.016462  0.007657  0.001079     2.150
   0.19398  0.81229  0.04864  1.05375  0.016152  0.007209  0.000959     2.241
   0.21115  0.79553  0.05238  1.06971  0.016003  0.006749  0.000796     2.371
   0.22833  0.77875  0.05606  1.08783  0.016002  0.006256  0.000593     2.558
   0.24546  0.76200  0.05967  1.10932  0.016133  0.005703  0.000407     2.829
   0.26249  0.74535  0.06319  1.13573  0.016387  0.005064  0.000176     3.236
   0.27941  0.72877  0.06660  1.16924  0.016731  0.004307 -0.000074     3.885
   0.29629  0.71222  0.06990  1.21176  0.017075  0.003422 -0.000244     4.990
   0.31313  0.69568  0.07308  1.25883  0.017329  0.002529 -0.000311     6.852
   0.32994  0.67915  0.07616  1.31562  0.017275  0.001556 -0.000373    11.100
   0.34670  0.66266  0.07911  1.30851  0.017268  0.001677 -0.000465    10.299
   0.36339  0.64620  0.08193  1.30969  0.016902  0.001661 -0.000471    10.178
   0.38005  0.62976  0.08462  1.31078  0.016359  0.001646 -0.000477     9.937
   0.39672  0.61329  0.08718  1.31185  0.015688  0.001633 -0.000483     9.608
   0.41338  0.59681  0.08962  1.31294  0.014910  0.001620 -0.000490     9.204
   0.42997  0.58038  0.09191  1.31407  0.014055  0.001607 -0.000499     8.746
   0.44649  0.56400  0.09406  1.31531  0.013166  0.001593 -0.000508     8.262
   0.46301  0.54760  0.09605  1.31672  0.012258  0.001579 -0.000520     7.763
   0.47954  0.53117  0.09790  1.31835  0.011339  0.001563 -0.000535     7.255
   0.49603  0.51477  0.09961  1.32025  0.010405  0.001545 -0.000554     6.733
   0.51242  0.49845  0.10115  1.32253  0.009501  0.001526 -0.000577     6.228
   0.52875  0.48218  0.10252  1.32530  0.008645  0.001503 -0.000606     5.752
   0.54509  0.46588  0.10371  1.32869  0.007840  0.001477 -0.000628     5.307
   0.56144  0.44957  0.10475  1.33279  0.007080  0.001448 -0.000627     4.889
   0.57774  0.43329  0.10561  1.33770  0.006371  0.001416 -0.000562     4.501
   0.59394  0.41711  0.10630  1.34342  0.005733  0.001380 -0.000393     4.155
   0.61007  0.40098  0.10679  1.34986  0.005174  0.001342 -0.000096     3.856
   0.62617  0.38489  0.10708  1.35716  0.004690  0.001300  0.000316     3.607
   0.64227  0.36879  0.10718  1.36526  0.004276  0.001256  0.000818     3.405
   0.65836  0.35270  0.10708  1.37393  0.003915  0.001209  0.001396     3.238
   0.67432  0.33674  0.10680  1.38302  0.003583  0.001161  0.002092     3.086
   0.69010  0.32097  0.10629  1.39183  0.003309  0.001115  0.002789     2.968
   0.70583  0.30526  0.10554  1.39970  0.003102  0.001072  0.003360     2.895
   0.72167  0.28945  0.10454  1.40679  0.002939  0.001031  0.003815     2.849
   0.73747  0.27369  0.10335  1.41452  0.002743  0.000988  0.004544     2.777
   0.75302  0.25820  0.10195  1.42173  0.002554  0.000945  0.005404     2.702
   0.76841  0.24291  0.10027  1.42660  0.002423  0.000909  0.005985     2.666
   0.78386  0.22758  0.09831  1.42978  0.002331  0.000876  0.006276     2.661
   0.79934  0.21226  0.09610  1.43364  0.002218  0.000841  0.006807     2.637
   0.81467  0.19713  0.09366  1.43715  0.002100  0.000805  0.007457     2.608
   0.82983  0.18221  0.09095  1.43920  0.002002  0.000772  0.007953     2.595
   0.84493  0.16741  0.08797  1.44015  0.001926  0.000740  0.008205     2.603
   0.85995  0.15275  0.08473  1.44198  0.001831  0.000705  0.008705     2.597
   0.87475  0.13836  0.08125  1.44372  0.001732  0.000669  0.009307     2.588
   0.88915  0.12444  0.07757  1.44575  0.001612  0.000631  0.010406     2.554
   0.90314  0.11101  0.07364  1.44479  0.001524  0.000597  0.011026     2.552
   0.91683  0.09797  0.06946  1.44285  0.001458  0.000564  0.011106     2.584
   0.92993  0.08560  0.06517  1.44450  0.001340  0.000525  0.012492     2.555
   0.94206  0.07425  0.06087  1.44440  0.001208  0.000485  0.014875     2.490
   0.95332  0.06387  0.05649  1.43635  0.001147  0.000456  0.015184     2.514
   0.96371  0.05444  0.05215  1.43044  0.001089  0.000426  0.015211     2.557
   0.97301  0.04611  0.04801  1.42925  0.000995  0.000391  0.016890     2.543
   0.98119  0.03891  0.04412  1.42656  0.000902  0.000358  0.019115     2.517
   0.98837  0.03273  0.04046  1.42065  0.000820  0.000329  0.021459     2.493
   0.99470  0.02743  0.03701  1.41138  0.000744  0.000302  0.024222     2.464
   1.00030  0.02288  0.03375  1.39752  0.000683  0.000279  0.026527     2.449
   1.00527  0.01898  0.03066  1.38065  0.000626  0.000257  0.029054     2.432
   1.00973  0.01561  0.02774  1.35995  0.000571  0.000237  0.032295     2.404
   1.01375  0.01272  0.02495  1.33336  0.000529  0.000220  0.034194     2.400
   1.01739  0.01024  0.02228  1.30315  0.000478  0.000203  0.038916     2.351
   1.02073  0.00811  0.01971  1.26205  0.000450  0.000191  0.039596     2.359
   1.02380  0.00630  0.01724  1.21855  0.000412  0.000177  0.043228     2.324
   1.02664  0.00476  0.01485  1.16452  0.000385  0.000167  0.044512     2.313
   1.02926  0.00350  0.01255  1.10404  0.000360  0.000157  0.045921     2.293
   1.03171  0.00246  0.01033  1.03497  0.000340  0.000150  0.046509     2.271
   1.03400  0.00163  0.00819  0.95894  0.000327  0.000144  0.044821     2.268
   1.03618  0.00098  0.00612  0.88193  0.000316  0.000139  0.042021     2.282
   1.03826  0.00048  0.00410  0.80561  0.000299  0.000130  0.040052     2.297
   1.04024  0.00015  0.00214  0.72217  0.000273  0.000120  0.039837     2.280
   1.04215  0.00001  0.00024  0.62151  0.000249  0.000110  0.037503     2.274
   1.04400  0.00012 -0.00161  0.49880  0.000225  0.000099  0.033393     2.264
   1.04587  0.00052 -0.00343  0.33734  0.000214  0.000098  0.024838     2.197
   1.04780  0.00123 -0.00524  0.17272  0.000247  0.000111  0.010161     2.231
   1.04986  0.00223 -0.00703  0.02942  0.000244  0.000109  0.001056     2.230
   1.05205  0.00354 -0.00879 -0.12553  0.000244  0.000109  0.009079     2.230
   1.05438  0.00514 -0.01048 -0.24152  0.000312  0.000136  0.012154     2.297
   1.05689  0.00705 -0.01212 -0.33788  0.000326  0.000147  0.017256     2.217
   1.05960  0.00924 -0.01371 -0.41861  0.000379  0.000164  0.016759     2.309
   1.06254  0.01171 -0.01530 -0.48314  0.000414  0.000182  0.018178     2.275
   1.06576  0.01450 -0.01689 -0.54148  0.000456  0.000199  0.018041     2.297
   1.06931  0.01766 -0.01852 -0.59256  0.000499  0.000217  0.017927     2.304
   1.07328  0.02125 -0.02021 -0.64042  0.000539  0.000234  0.017891     2.304
   1.07773  0.02534 -0.02197 -0.68577  0.000582  0.000252  0.017649     2.309
   1.08275  0.03002 -0.02380 -0.72717  0.000632  0.000272  0.016947     2.324
   1.08845  0.03539 -0.02569 -0.76630  0.000682  0.000293  0.016512     2.327
   1.09493  0.04158 -0.02763 -0.80267  0.000740  0.000316  0.015733     2.339
   1.10237  0.04875 -0.02960 -0.83436  0.000814  0.000345  0.014550     2.362
   1.11095  0.05710 -0.03158 -0.85773  0.000919  0.000382  0.012620     2.408
   1.12083  0.06678 -0.03358 -0.87937  0.001004  0.000418  0.011955     2.400
   1.13204  0.07781 -0.03556 -0.89858  0.001104  0.000458  0.010955     2.412
   1.14448  0.09010 -0.03747 -0.91519  0.001207  0.000498  0.010114     2.421
   1.15809  0.10359 -0.03926 -0.92758  0.001332  0.000544  0.009037     2.448
   1.17266  0.11806 -0.04096 -0.94002  0.001423  0.000585  0.008695     2.434
   1.18781  0.13314 -0.04249 -0.95180  0.001514  0.000623  0.008309     2.430
   1.20335  0.14862 -0.04385 -0.96212  0.001609  0.000661  0.007877     2.433
   1.21923  0.16445 -0.04503 -0.97009  0.001717  0.000701  0.007319     2.450
   1.23540  0.18059 -0.04604 -0.97670  0.001819  0.000740  0.006886     2.459
   1.25175  0.19691 -0.04691 -0.98343  0.001899  0.000774  0.006690     2.452
   1.26813  0.21328 -0.04763 -0.98933  0.001984  0.000808  0.006424     2.454
   1.28457  0.22971 -0.04819 -0.99460  0.002068  0.000842  0.006184     2.457
   1.30115  0.24629 -0.04860 -0.99843  0.002168  0.000877  0.005825     2.472
   1.31783  0.26296 -0.04890 -1.00237  0.002247  0.000909  0.005642     2.472
   1.33448  0.27961 -0.04908 -1.00626  0.002319  0.000939  0.005509     2.469
   1.35110  0.29624 -0.04912 -1.00927  0.002404  0.000970  0.005287     2.477
   1.36778  0.31291 -0.04903 -1.01164  0.002493  0.001002  0.005056     2.487
   1.38450  0.32963 -0.04882 -1.01384  0.002574  0.001033  0.004883     2.492
   1.40120  0.34633 -0.04849 -1.01562  0.002658  0.001063  0.004702     2.499
   1.41786  0.36298 -0.04803 -1.01687  0.002747  0.001094  0.004506     2.510
   1.43449  0.37961 -0.04745 -1.01752  0.002843  0.001127  0.004289     2.524
   1.45114  0.39623 -0.04673 -1.01739  0.002954  0.001161  0.004033     2.546
   1.46777  0.41285 -0.04588 -1.01651  0.003077  0.001196  0.003758     2.572
   1.48439  0.42943 -0.04489 -1.01508  0.003207  0.001233  0.003490     2.600
   1.50097  0.44597 -0.04378 -1.01268  0.003364  0.001274  0.003167     2.641
   1.51751  0.46247 -0.04253 -1.00942  0.003548  0.001317  0.002815     2.693
   1.53401  0.47892 -0.04112 -1.00507  0.003780  0.001366  0.002398     2.767
   1.55050  0.49532 -0.03957 -0.99971  0.004073  0.001419  0.001932     2.869
   1.56702  0.51176 -0.03785 -0.99345  0.004459  0.001478  0.001408     3.017
   1.58368  0.52831 -0.03597 -0.98688  0.004947  0.001539  0.000886     3.215
   1.60055  0.54506 -0.03395 -0.98065  0.005536  0.001597  0.000426     3.466
   1.61761  0.56199 -0.03181 -0.97519  0.006209  0.001650  0.000071     3.763
   1.63483  0.57906 -0.02959 -0.97051  0.006959  0.001697 -0.000169     4.100
   1.65218  0.59626 -0.02732 -0.96644  0.007768  0.001740 -0.000302     4.463
   1.66962  0.61355 -0.02500 -0.96292  0.008622  0.001780 -0.000358     4.844
   1.68712  0.63090 -0.02268 -0.95993  0.009496  0.001816 -0.000369     5.229
   1.70462  0.64824 -0.02037 -0.95741  0.010382  0.001848 -0.000363     5.617
   1.72205  0.66552 -0.01809 -0.95526  0.011265  0.001877 -0.000350     6.000
   1.73939  0.68272 -0.01585 -0.95342  0.012137  0.001904 -0.000336     6.374
   1.75663  0.69982 -0.01367 -0.95180  0.012972  0.001929 -0.000325     6.725
   1.77378  0.71684 -0.01156 -0.95034  0.013762  0.001952 -0.000315     7.049
   1.79085  0.73379 -0.00953 -0.94901  0.014493  0.001975 -0.000308     7.339
   1.80784  0.75067 -0.00760 -0.94776  0.015157  0.001997 -0.000301     7.591
   1.82474  0.76746 -0.00576 -0.94657  0.015745  0.002018 -0.000295     7.801
   1.84154  0.78418 -0.00404 -0.94541  0.016241  0.002040 -0.000290     7.961
   1.85823  0.80079 -0.00245 -0.94428  0.016639  0.002062 -0.000286     8.069
   1.87481  0.81731 -0.00100 -0.94314  0.016921  0.002085 -0.000282     8.117
   1.89126  0.83371  0.00030 -0.94197  0.017075  0.002108 -0.000279     8.099
   1.90759  0.85000  0.00143 -0.94077  0.017090  0.002133 -0.000276     8.012
   1.92381  0.86619  0.00238 -0.93951  0.016954  0.002159 -0.000274     7.853
   1.93987  0.88223  0.00314 -0.93819  0.016666  0.002186 -0.000272     7.623
   1.95573  0.89808  0.00370 -0.93678  0.016212  0.002215 -0.000271     7.318
   1.97131  0.91366  0.00404 -0.93527  0.015586  0.002246 -0.000272     6.940
   1.98653  0.92887  0.00415 -0.93366  0.014768  0.002277 -0.000274     6.485
   2.00124  0.94358  0.00401 -0.93194  0.013763  0.002310 -0.000279     5.958
   2.01526  0.95760  0.00361 -0.93016  0.012575  0.002342 -0.000278     5.370
   2.02837  0.97069  0.00296 -0.92069  0.011258  0.002510 -0.000130     4.484
   2.04040  0.98268  0.00205 -0.90613  0.009863  0.002763  0.000115     3.570
   2.05125  0.99348  0.00090 -0.89824  0.008458  0.002895  0.000749     2.921
   2.05783  1.00000  0.00000 -0.89162  0.008414  0.003005  0.000877     2.800
   2.05783  1.00010 -0.00002  0.89162  0.044313  0.017561  0.000000     2.523
   2.06446  1.00660 -0.00133  0.89511  0.040250  0.017258  0.000000     2.332
   2.07221  1.01424 -0.00260  0.89626  0.038059  0.017161  0.000000     2.218
   2.08127  1.02320 -0.00393  0.89773  0.035939  0.017042  0.000000     2.109
   2.09186  1.03369 -0.00534  0.89968  0.033841  0.016889  0.000000     2.004
   2.10423  1.04598 -0.00684  0.90234  0.031729  0.016691  0.000000     1.901
   2.11869  1.06035 -0.00842  0.90587  0.029613  0.016439  0.000000     1.801
   2.13560  1.07717 -0.01011  0.91037  0.027522  0.016133  0.000000     1.706
   2.15535  1.09685 -0.01188  0.91584  0.025498  0.015781  0.000000     1.616
   2.17845  1.11987 -0.01374  0.92217  0.023586  0.015395  0.000000     1.532
   2.20544  1.14679 -0.01568  0.92914  0.021824  0.014994  0.000000     1.455
   2.23698  1.17827 -0.01767  0.93643  0.020238  0.014598  0.000000     1.386
   2.27386  1.21509 -0.01968  0.94377  0.018839  0.014220  0.000000     1.325
   2.31695  1.25814 -0.02169  0.95084  0.017625  0.013873  0.000000     1.270
   2.36732  1.30847 -0.02363  0.95750  0.016586  0.013562  0.000000     1.223
   2.42619  1.36731 -0.02544  0.96361  0.015704  0.013288  0.000000     1.182
   2.49501  1.43611 -0.02704  0.96911  0.014964  0.013049  0.000000     1.147
   2.57543  1.51652 -0.02832  0.97402  0.014349  0.012843  0.000000     1.117
   2.66944  1.61052 -0.02916  0.97834  0.013844  0.012666  0.000000     1.093
   2.77931  1.72039 -0.02940  0.98207  0.013432  0.012517  0.000000     1.073
   2.90773  1.84881 -0.02885  0.98527  0.013101  0.012390  0.000000     1.057
   3.05782  1.99890 -0.02728  0.98865  0.012810  0.012260  0.000000     1.045
