#    s        x        y     Ue/Vinf    Dstar     Theta      Cf       H
   0.00000  1.00000  0.00000  0.93840  0.061870  0.014822  0.000000     4.174
   0.00668  0.99360  0.00192  0.94017  0.058990  0.014650 -0.000047     4.026
   0.01807  0.98272  0.00530  0.94398  0.056277  0.014296 -0.000047     3.937
   0.03106  0.97032  0.00914  0.94864  0.053311  0.013879 -0.000049     3.841
   0.04516  0.95680  0.01317  0.95415  0.050187  0.013412 -0.000050     3.742
   0.06006  0.94246  0.01720  0.96053  0.047019  0.012901 -0.000052     3.645
   0.07565  0.92739  0.02118  0.96802  0.044044  0.012337 -0.000054     3.570
   0.09186  0.91167  0.02516  0.97674  0.041147  0.011722 -0.000056     3.510
   0.10852  0.89549  0.02915  0.98787  0.040630  0.010977 -0.000058     3.702
   0.12544  0.87905  0.03313  0.99945  0.039734  0.010234 -0.000065     3.883
   0.14250  0.86245  0.03708  1.01192  0.039323  0.009468 -0.000071     4.153
   0.15964  0.84577  0.04099  1.02478  0.037724  0.008718 -0.000077     4.327
   0.17681  0.82904  0.04484  1.03896  0.036083  0.007945 -0.000083     4.542
   0.19398  0.81229  0.04864  1.05477  0.034486  0.007144 -0.000090     4.827
   0.21115  0.79553  0.05238  1.07256  0.032909  0.006311 -0.000098     5.215
   0.22833  0.77875  0.05606  1.09290  0.031389  0.005437 -0.000109     5.773
   0.24546  0.76200  0.05967  1.11648  0.029691  0.004518 -0.000123     6.572
   0.26249  0.74535  0.06319  1.14453  0.028415  0.003532 -0.000143     8.044
   0.27941  0.72877  0.06660  1.18078  0.024142  0.002450 -0.000171     9.854
   0.29629  0.71222  0.06990  1.23168  0.027024  0.001007 -0.000221    26.847
   0.31313  0.69568  0.07308  1.21237  0.022673  0.001649 -0.000307    13.750
   0.32994  0.67915  0.07616  1.21278  0.021604  0.001642 -0.000430    13.153
   0.34670  0.66266  0.07911  1.21316  0.020427  0.001637 -0.000432    12.480
   0.36339  0.64620  0.08193  1.21355  0.019185  0.001631 -0.000434    11.760
   0.38005  0.62976  0.08462  1.21398  0.017910  0.001626 -0.000437    11.018
   0.39672  0.61329  0.08718  1.21449  0.016619  0.001619 -0.000440    10.266
   0.41338  0.59681  0.08962  1.21510  0.015311  0.001611 -0.000443     9.503
   0.42997  0.58038  0.09191  1.21585  0.014013  0.001602 -0.000448     8.747
   0.44649  0.56400  0.09406  1.21682  0.012753  0.001591 -0.000454     8.017
   0.46301  0.54760  0.09605  1.21809  0.011543  0.001577 -0.000462     7.321
   0.47954  0.53117  0.09790  1.21973  0.010384  0.001560 -0.000473     6.657
   0.49603  0.51477  0.09961  1.22186  0.009274  0.001539 -0.000487     6.025
   0.51242  0.49845  0.10115  1.22463  0.008246  0.001515 -0.000508     5.444
   0.52875  0.48218  0.10252  1.22822  0.007332  0.001485 -0.000535     4.936
   0.54509  0.46588  0.10371  1.23277  0.006514  0.001451 -0.000566     4.488
   0.56144  0.44957  0.10475  1.23835  0.005788  0.001413 -0.000573     4.098
   0.57774  0.43329  0.10561  1.24468  0.005152  0.001371 -0.000505     3.758
   0.59394  0.41711  0.10630  1.25202  0.004615  0.001325 -0.000289     3.483
   0.61007  0.40098  0.10679  1.26023  0.004182  0.001275  0.000102     3.279
   0.62617  0.38489  0.10708  1.26875  0.003827  0.001224  0.000619     3.125
   0.64227  0.36879  0.10718  1.27715  0.003534  0.001175  0.001213     3.009
   0.65836  0.35270  0.10708  1.28533  0.003274  0.001126  0.001835     2.908
   0.67432  0.33674  0.10680  1.29309  0.003038  0.001078  0.002509     2.818
   0.69010  0.32097  0.10629  1.30001  0.002831  0.001033  0.003234     2.740
   0.70583  0.30526  0.10554  1.30499  0.002688  0.000994  0.003978     2.704
   0.72167  0.28945  0.10454  1.30926  0.002561  0.000956  0.004479     2.678
   0.73747  0.27369  0.10335  1.31388  0.002408  0.000916  0.004937     2.629
   0.75302  0.25820  0.10195  1.31769  0.002254  0.000876  0.005636     2.573
   0.76841  0.24291  0.10027  1.31882  0.002143  0.000842  0.006477     2.545
   0.78386  0.22758  0.09831  1.31791  0.002065  0.000812  0.007075     2.542
   0.79934  0.21226  0.09610  1.31709  0.001974  0.000780  0.007389     2.530
   0.81467  0.19713  0.09366  1.31608  0.001868  0.000746  0.007836     2.504
   0.82983  0.18221  0.09095  1.31290  0.001783  0.000715  0.008538     2.493
   0.84493  0.16741  0.08797  1.30824  0.001714  0.000686  0.009042     2.500
   0.85995  0.15275  0.08473  1.30399  0.001629  0.000653  0.009308     2.495
   0.87475  0.13836  0.08125  1.29898  0.001541  0.000620  0.009838     2.488
   0.88915  0.12444  0.07757  1.29344  0.001434  0.000584  0.010434     2.456
   0.90314  0.11101  0.07364  1.28385  0.001353  0.000552  0.011554     2.451
   0.91683  0.09797  0.06946  1.27228  0.001298  0.000523  0.012235     2.485
   0.92993  0.08560  0.06517  1.26402  0.001194  0.000485  0.012197     2.463
   0.94206  0.07425  0.06087  1.25252  0.001071  0.000447  0.013441     2.396
   0.95332  0.06387  0.05649  1.23084  0.001018  0.000422  0.015924     2.414
   0.96371  0.05444  0.05215  1.21108  0.000962  0.000394  0.016139     2.442
   0.97301  0.04611  0.04801  1.19436  0.000883  0.000362  0.016369     2.437
   0.98119  0.03891  0.04412  1.17578  0.000800  0.000332  0.017614     2.410
   0.98837  0.03273  0.04046  1.15222  0.000733  0.000306  0.019673     2.399
   0.99470  0.02743  0.03701  1.12561  0.000670  0.000281  0.021134     2.383
   1.00030  0.02288  0.03375  1.09418  0.000611  0.000259  0.022871     2.354
   1.00527  0.01898  0.03066  1.05708  0.000571  0.000241  0.025160     2.364
   1.00973  0.01561  0.02774  1.01878  0.000519  0.000222  0.025420     2.337
   1.01375  0.01272  0.02495  0.97230  0.000478  0.000206  0.027658     2.318
   1.01739  0.01024  0.02228  0.91998  0.000447  0.000192  0.029090     2.320
   1.02073  0.00811  0.01971  0.86195  0.000408  0.000179  0.029019     2.282
   1.02380  0.00630  0.01724  0.79548  0.000389  0.000168  0.030947     2.309
   1.02664  0.00476  0.01485  0.72448  0.000351  0.000156  0.028517     2.250
   1.02926  0.00350  0.01255  0.64116  0.000342  0.000150  0.030519     2.283
   1.03171  0.00246  0.01033  0.55733  0.000315  0.000140  0.026059     2.247
   1.03400  0.00163  0.00819  0.46070  0.000304  0.000136  0.025229     2.238
   1.03618  0.00098  0.00612  0.36267  0.000296  0.000132  0.021064     2.246
   1.03826  0.00048  0.00410  0.26277  0.000273  0.000121  0.016112     2.263
   1.04024  0.00015  0.00214  0.14458  0.000246  0.000110  0.011242     2.230
   1.04215  0.00001  0.00024  0.01227  0.000246  0.000110  0.004965     2.230
   1.04400  0.00012 -0.00161 -0.13222  0.000225  0.000101  0.004181     2.224
   1.04587  0.00052 -0.00343 -0.29328  0.000219  0.000098  0.014833     2.231
   1.04780  0.00123 -0.00524 -0.43175  0.000248  0.000109  0.027264     2.278
   1.04986  0.00223 -0.00703 -0.55985  0.000256  0.000115  0.030452     2.227
   1.05205  0.00354 -0.00879 -0.66879  0.000289  0.000126  0.039557     2.301
   1.05438  0.00514 -0.01048 -0.74714  0.000328  0.000142  0.037231     2.314
   1.05689  0.00705 -0.01212 -0.80618  0.000374  0.000160  0.035852     2.342
   1.05960  0.00924 -0.01371 -0.84530  0.000434  0.000182  0.032204     2.389
   1.06254  0.01171 -0.01530 -0.88136  0.000470  0.000200  0.027596     2.354
   1.06576  0.01450 -0.01689 -0.90933  0.000530  0.000221  0.027305     2.397
   1.06931  0.01766 -0.01852 -0.93397  0.000578  0.000242  0.023681     2.391
   1.07328  0.02125 -0.02021 -0.95837  0.000623  0.000261  0.022392     2.384
   1.07773  0.02534 -0.02197 -0.98415  0.000662  0.000279  0.021408     2.370
   1.08275  0.03002 -0.02380 -1.00620  0.000723  0.000302  0.021000     2.396
   1.08845  0.03539 -0.02569 -1.02830  0.000772  0.000323  0.019073     2.388
   1.09493  0.04158 -0.02763 -1.04660  0.000845  0.000350  0.018398     2.416
   1.10237  0.04875 -0.02960 -1.06069  0.000930  0.000381  0.016572     2.445
   1.11095  0.05710 -0.03158 -1.06974  0.001037  0.000418  0.014760     2.483
   1.12083  0.06678 -0.03358 -1.07449  0.001160  0.000460  0.012788     2.520
   1.13204  0.07781 -0.03556 -1.08007  0.001257  0.000501  0.010982     2.507
   1.14448  0.09010 -0.03747 -1.08320  0.001383  0.000547  0.010327     2.530
   1.15809  0.10359 -0.03926 -1.08422  0.001519  0.000595  0.009158     2.552
   1.17266  0.11806 -0.04096 -1.08566  0.001633  0.000641  0.008125     2.547
   1.18781  0.13314 -0.04249 -1.08843  0.001725  0.000682  0.007609     2.528
   1.20335  0.14862 -0.04385 -1.09088  0.001827  0.000723  0.007390     2.527
   1.21923  0.16445 -0.04503 -1.09190  0.001946  0.000765  0.007020     2.543
   1.23540  0.18059 -0.04604 -1.09232  0.002060  0.000807  0.006480     2.553
   1.25175  0.19691 -0.04691 -1.09366  0.002144  0.000844  0.006053     2.540
   1.26813  0.21328 -0.04763 -1.09453  0.002241  0.000881  0.005911     2.544
   1.28457  0.22971 -0.04819 -1.09515  0.002337  0.000917  0.005634     2.548
   1.30115  0.24629 -0.04860 -1.09505  0.002441  0.000954  0.005395     2.558
   1.31783  0.26296 -0.04890 -1.09499  0.002538  0.000990  0.005107     2.565
   1.33448  0.27961 -0.04908 -1.09546  0.002615  0.001021  0.004881     2.560
   1.35110  0.29624 -0.04912 -1.09528  0.002707  0.001055  0.004781     2.566
   1.36778  0.31291 -0.04903 -1.09433  0.002816  0.001090  0.004588     2.583
   1.38450  0.32963 -0.04882 -1.09372  0.002907  0.001123  0.004324     2.588
   1.40120  0.34633 -0.04849 -1.09249  0.003014  0.001158  0.004171     2.604
   1.41786  0.36298 -0.04803 -1.09097  0.003124  0.001192  0.003952     2.621
   1.43449  0.37961 -0.04745 -1.08890  0.003250  0.001228  0.003742     2.646
   1.45114  0.39623 -0.04673 -1.08611  0.003393  0.001266  0.003496     2.679
   1.46777  0.41285 -0.04588 -1.08263  0.003561  0.001307  0.003217     2.724
   1.48439  0.42943 -0.04489 -1.07858  0.003749  0.001350  0.002898     2.776
   1.50097  0.44597 -0.04378 -1.07370  0.003980  0.001397  0.002573     2.848
   1.51751  0.46247 -0.04253 -1.06811  0.004269  0.001448  0.002194     2.949
   1.53401  0.47892 -0.04112 -1.06201  0.004631  0.001501  0.001768     3.085
   1.55050  0.49532 -0.03957 -1.05572  0.005103  0.001556  0.001311     3.280
   1.56702  0.51176 -0.03785 -1.04965  0.005698  0.001610  0.000821     3.540
   1.58368  0.52831 -0.03597 -1.04440  0.006440  0.001657  0.000360     3.886
   1.60055  0.54506 -0.03395 -1.04003  0.007298  0.001699 -0.000025     4.296
   1.61761  0.56199 -0.03181 -1.03631  0.008250  0.001736 -0.000270     4.751
   1.63483  0.57906 -0.02959 -1.03324  0.009270  0.001769 -0.000384     5.239
   1.65218  0.59626 -0.02732 -1.03082  0.010339  0.001798 -0.000412     5.752
   1.66962  0.61355 -0.02500 -1.02880  0.011429  0.001823 -0.000404     6.270
   1.68712  0.63090 -0.02268 -1.02714  0.012514  0.001845 -0.000386     6.783
   1.70462  0.64824 -0.02037 -1.02572  0.013577  0.001865 -0.000370     7.281
   1.72205  0.66552 -0.01809 -1.02453  0.014600  0.001883 -0.000357     7.755
   1.73939  0.68272 -0.01585 -1.02344  0.015574  0.001900 -0.000347     8.197
   1.75663  0.69982 -0.01367 -1.02246  0.016471  0.001916 -0.000339     8.595
   1.77378  0.71684 -0.01156 -1.02155  0.017281  0.001932 -0.000333     8.943
   1.79085  0.73379 -0.00953 -1.02066  0.017994  0.001949 -0.000327     9.233
   1.80784  0.75067 -0.00760 -1.01975  0.018593  0.001966 -0.000322     9.458
   1.82474  0.76746 -0.00576 -1.01881  0.019069  0.001984 -0.000318     9.609
   1.84154  0.78418 -0.00404 -1.01786  0.019402  0.002004 -0.000314     9.684
   1.85823  0.80079 -0.00245 -1.01692  0.019579  0.002023 -0.000310     9.676
   1.87481  0.81731 -0.00100 -1.01586  0.019587  0.002046 -0.000307     9.575
   1.89126  0.83371  0.00030 -1.01474  0.019396  0.002070 -0.000304     9.371
   1.90759  0.85000  0.00143 -1.01349  0.018990  0.002096 -0.000301     9.060
   1.92381  0.86619  0.00238 -1.01208  0.018331  0.002125 -0.000299     8.625
   1.93987  0.88223  0.00314 -1.01050  0.017378  0.002158 -0.000297     8.054
   1.95573  0.89808  0.00370 -0.99011  0.016395  0.002590 -0.000297     6.330
   1.97131  0.91366  0.00404 -0.96136  0.015041  0.003227 -0.000222     4.662
   1.98653  0.92887  0.00415 -0.93471  0.013430  0.003828 -0.000175     3.508
   2.00124  0.94358  0.00401 -0.91879  0.011618  0.004185  0.000108     2.776
   2.01526  0.95760  0.00361 -0.91285  0.009895  0.004317  0.000732     2.292
   2.02837  0.97069  0.00296 -0.91625  0.008369  0.004262  0.001535     1.964
   2.04040  0.98268  0.00205 -0.92962  0.006974  0.004044  0.002455     1.725
   2.05125  0.99348  0.00090 -0.95506  0.005671  0.003679  0.003597     1.541
   2.05783  1.00000  0.00000 -0.94296  0.006010  0.003875  0.005178     1.551
   2.05783  1.00010 -0.00002  0.94299  0.068016  0.018708  0.000000     3.636
   2.06446  1.00660 -0.00133  0.93404  0.059500  0.019710  0.000000     3.019
   2.07221  1.01424 -0.00263  0.92510  0.056604  0.020671  0.000000     2.738
   2.08127  1.02319 -0.00400  0.91943  0.054041  0.021249  0.000000     2.543
   2.09186  1.03368 -0.00546  0.91811  0.051441  0.021325  0.000000     2.412
   2.10423  1.04595 -0.00703  0.91428  0.048993  0.021674  0.000000     2.260
   2.11869  1.06031 -0.00872  0.91034  0.046688  0.022022  0.000000     2.120
   2.13560  1.07712 -0.01053  0.90829  0.043730  0.022158  0.000000     1.974
   2.15535  1.09678 -0.01249  0.91055  0.039761  0.021859  0.000000     1.819
   2.17845  1.11978 -0.01458  0.91571  0.035810  0.021321  0.000000     1.680
   2.20544  1.14667 -0.01682  0.92225  0.032333  0.020714  0.000000     1.561
   2.23698  1.17813 -0.01919  0.92992  0.029314  0.020075  0.000000     1.460
   2.27386  1.21492 -0.02170  0.93840  0.026719  0.019436  0.000000     1.375
   2.31695  1.25793 -0.02433  0.94691  0.024561  0.018848  0.000000     1.303
   2.36732  1.30823 -0.02706  0.95495  0.022796  0.018328  0.000000     1.244
   2.42619  1.36703 -0.02987  0.96221  0.021364  0.017883  0.000000     1.195
   2.49501  1.43579 -0.03272  0.96864  0.020202  0.017498  0.000000     1.154
   2.57543  1.51616 -0.03557  0.97420  0.019258  0.017173  0.000000     1.121
   2.66944  1.61012 -0.03835  0.97893  0.018488  0.016889  0.000000     1.095
   2.77931  1.71996 -0.04100  0.98293  0.017873  0.016653  0.000000     1.073
   2.90773  1.84836 -0.04343  0.98627  0.017390  0.016460  0.000000     1.056
   3.05782  1.99844 -0.04552  0.98985  0.016968  0.016262  0.000000     1.043
