#    s        x        y     Ue/Vinf    Dstar     Theta      Cf       H
   0.00000  1.00000  0.00000  0.91200  0.040750  0.014457  0.000269     2.819
   0.00668  0.99360  0.00192  0.91648  0.038168  0.014122  0.000346     2.703
   0.01807  0.98272  0.00530  0.92329  0.035540  0.013641  0.000427     2.605
   0.03106  0.97032  0.00914  0.93183  0.032814  0.013077  0.000525     2.509
   0.04516  0.95680  0.01317  0.94171  0.030260  0.012471  0.000630     2.426
   0.06006  0.94246  0.01720  0.95245  0.028014  0.011859  0.000732     2.362
   0.07565  0.92739  0.02118  0.96373  0.026106  0.011262  0.000821     2.318
   0.09186  0.91167  0.02516  0.97546  0.024483  0.010684  0.000893     2.292
   0.10852  0.89549  0.02915  0.98768  0.023074  0.010121  0.000948     2.280
   0.12544  0.87905  0.03313  1.00031  0.021863  0.009577  0.000983     2.283
   0.14250  0.86245  0.03708  1.01332  0.020839  0.009053  0.000991     2.302
   0.15964  0.84577  0.04099  1.02675  0.019990  0.008544  0.000970     2.340
   0.17681  0.82904  0.04484  1.04075  0.019306  0.008046  0.000914     2.399
   0.19398  0.81229  0.04864  1.05555  0.018780  0.007550  0.000822     2.487
   0.21115  0.79553  0.05238  1.07155  0.018411  0.007046  0.000691     2.613
   0.22833  0.77875  0.05606  1.08938  0.018180  0.006515  0.000526     2.790
   0.24546  0.76200  0.05967  1.10984  0.018070  0.005943  0.000370     3.041
   0.26249  0.74535  0.06319  1.13387  0.018076  0.005313  0.000176     3.402
   0.27941  0.72877  0.06660  1.16319  0.018170  0.004596 -0.000040     3.954
   0.29629  0.71222  0.06990  1.19812  0.018302  0.003806 -0.000207     4.809
   0.31313  0.69568  0.07308  1.23558  0.018412  0.003028 -0.000277     6.082
   0.32994  0.67915  0.07616  1.27758  0.018383  0.002230 -0.000355     8.242
   0.34670  0.66266  0.07911  1.31096  0.018180  0.001659 -0.000468    10.956
   0.36339  0.64620  0.08193  1.31212  0.017910  0.001643 -0.000474    10.902
   0.38005  0.62976  0.08462  1.31315  0.017406  0.001629 -0.000479    10.688
   0.39672  0.61329  0.08718  1.31413  0.016741  0.001616 -0.000485    10.360
   0.41338  0.59681  0.08962  1.31509  0.015951  0.001604 -0.000492     9.945
   0.42997  0.58038  0.09191  1.31607  0.015071  0.001592 -0.000499     9.464
   0.44649  0.56400  0.09406  1.31713  0.014144  0.001580 -0.000508     8.949
   0.46301  0.54760  0.09605  1.31832  0.013193  0.001568 -0.000519     8.415
   0.47954  0.53117  0.09790  1.31969  0.012218  0.001554 -0.000532     7.863
   0.49603  0.51477  0.09961  1.32129  0.011230  0.001538 -0.000548     7.300
   0.51242  0.49845  0.10115  1.32320  0.010258  0.001521 -0.000569     6.744
   0.52875  0.48218  0.10252  1.32554  0.009336  0.001501 -0.000595     6.219
   0.54509  0.46588  0.10371  1.32842  0.008462  0.001478 -0.000625     5.725
   0.56144  0.44957  0.10475  1.33196  0.007627  0.001452 -0.000640     5.253
   0.57774  0.43329  0.10561  1.33629  0.006846  0.001422 -0.000619     4.814
   0.59394  0.41711  0.10630  1.34149  0.006139  0.001389 -0.000513     4.421
   0.61007  0.40098  0.10679  1.34750  0.005511  0.001352 -0.000284     4.076
   0.62617  0.38489  0.10708  1.35434  0.004967  0.001313  0.000073     3.784
   0.64227  0.36879  0.10718  1.36210  0.004496  0.001270  0.000542     3.542
   0.65836  0.35270  0.10708  1.37068  0.004087  0.001224  0.001111     3.340
   0.67432  0.33674  0.10680  1.37984  0.003719  0.001176  0.001798     3.164
   0.69010  0.32097  0.10629  1.38902  0.003411  0.001128  0.002522     3.024
   0.70583  0.30526  0.10554  1.39729  0.003187  0.001084  0.003093     2.941
   0.72167  0.28945  0.10454  1.40504  0.003000  0.001041  0.003609     2.880
   0.73747  0.27369  0.10335  1.41309  0.002797  0.000997  0.004320     2.805
   0.75302  0.25820  0.10195  1.42086  0.002595  0.000954  0.005216     2.721
   0.76841  0.24291  0.10027  1.42602  0.002463  0.000917  0.005755     2.686
   0.78386  0.22758  0.09831  1.42999  0.002359  0.000883  0.006127     2.673
   0.79934  0.21226  0.09610  1.43419  0.002243  0.000847  0.006653     2.649
   0.81467  0.19713  0.09366  1.43808  0.002122  0.000810  0.007303     2.619
   0.82983  0.18221  0.09095  1.44037  0.002028  0.000777  0.007736     2.609
   0.84493  0.16741  0.08797  1.44209  0.001943  0.000744  0.008065     2.611
   0.85995  0.15275  0.08473  1.44429  0.001847  0.000709  0.008557     2.605
   0.87475  0.13836  0.08125  1.44650  0.001745  0.000673  0.009191     2.594
   0.88915  0.12444  0.07757  1.44877  0.001627  0.000635  0.010228     2.563
   0.90314  0.11101  0.07364  1.44839  0.001536  0.000600  0.010862     2.560
   0.91683  0.09797  0.06946  1.44697  0.001471  0.000567  0.010919     2.593
   0.92993  0.08560  0.06517  1.44937  0.001348  0.000527  0.012410     2.558
   0.94206  0.07425  0.06087  1.44948  0.001218  0.000488  0.014672     2.498
   0.95332  0.06387  0.05649  1.44223  0.001156  0.000458  0.014979     2.522
   0.96371  0.05444  0.05215  1.43715  0.001097  0.000428  0.015014     2.564
   0.97301  0.04611  0.04801  1.43676  0.001000  0.000393  0.016781     2.547
   0.98119  0.03891  0.04412  1.43457  0.000908  0.000360  0.018935     2.524
   0.98837  0.03273  0.04046  1.42953  0.000823  0.000330  0.021451     2.496
   0.99470  0.02743  0.03701  1.42063  0.000750  0.000303  0.023992     2.472
   1.00030  0.02288  0.03375  1.40799  0.000685  0.000280  0.026630     2.450
   1.00527  0.01898  0.03066  1.39146  0.000629  0.000258  0.029100     2.435
   1.00973  0.01561  0.02774  1.37157  0.000576  0.000239  0.031876     2.417
   1.01375  0.01272  0.02495  1.34686  0.000524  0.000220  0.035724     2.380
   1.01739  0.01024  0.02228  1.31412  0.000488  0.000205  0.037599     2.376
   1.02073  0.00811  0.01971  1.27775  0.000447  0.000190  0.040909     2.349
   1.02380  0.00630  0.01724  1.23330  0.000417  0.000178  0.042771     2.340
   1.02664  0.00476  0.01485  1.18213  0.000383  0.000166  0.046317     2.302
   1.02926  0.00350  0.01255  1.11986  0.000363  0.000158  0.046302     2.300
   1.03171  0.00246  0.01033  1.05285  0.000341  0.000150  0.047645     2.272
   1.03400  0.00163  0.00819  0.97660  0.000327  0.000145  0.046393     2.262
   1.03618  0.00098  0.00612  0.90022  0.000320  0.000139  0.042287     2.297
   1.03826  0.00048  0.00410  0.82671  0.000297  0.000130  0.042136     2.290
   1.04024  0.00015  0.00214  0.74120  0.000274  0.000120  0.041600     2.275
   1.04215  0.00001  0.00024  0.64458  0.000252  0.000110  0.038314     2.300
   1.04400  0.00012 -0.00161  0.52253  0.000221  0.000099  0.037563     2.237
   1.04587  0.00052 -0.00343  0.36056  0.000220  0.000099  0.026466     2.217
   1.04780  0.00123 -0.00524  0.19744  0.000235  0.000106  0.013524     2.223
   1.04986  0.00223 -0.00703  0.04629  0.000248  0.000111  0.002984     2.230
   1.05205  0.00354 -0.00879 -0.10362  0.000248  0.000111  0.006681     2.230
   1.05438  0.00514 -0.01048 -0.22159  0.000308  0.000135  0.010978     2.282
   1.05689  0.00705 -0.01212 -0.32012  0.000325  0.000146  0.015821     2.224
   1.05960  0.00924 -0.01371 -0.40100  0.000378  0.000164  0.015809     2.306
   1.06254  0.01171 -0.01530 -0.46722  0.000411  0.000181  0.017543     2.269
   1.06576  0.01450 -0.01689 -0.53012  0.000445  0.000195  0.018155     2.282
   1.06931  0.01766 -0.01852 -0.58015  0.000503  0.000216  0.016875     2.326
   1.07328  0.02125 -0.02021 -0.62726  0.000538  0.000234  0.017515     2.298
   1.07773  0.02534 -0.02197 -0.67454  0.000577  0.000251  0.017534     2.301
   1.08275  0.03002 -0.02380 -0.71798  0.000626  0.000270  0.016923     2.318
   1.08845  0.03539 -0.02569 -0.75641  0.000684  0.000293  0.016034     2.336
   1.09493  0.04158 -0.02763 -0.79349  0.000736  0.000315  0.015693     2.332
   1.10237  0.04875 -0.02960 -0.82554  0.000813  0.000344  0.014357     2.363
   1.11095  0.05710 -0.03158 -0.85056  0.000909  0.000379  0.012785     2.396
   1.12083  0.06678 -0.03358 -0.87207  0.001004  0.000417  0.011768     2.405
   1.13204  0.07781 -0.03556 -0.89239  0.001094  0.000455  0.011072     2.403
   1.14448  0.09010 -0.03747 -0.90928  0.001203  0.000497  0.010071     2.422
   1.15809  0.10359 -0.03926 -0.92255  0.001321  0.000541  0.009130     2.440
   1.17266  0.11806 -0.04096 -0.93494  0.001420  0.000583  0.008648     2.436
   1.18781  0.13314 -0.04249 -0.94745  0.001504  0.000621  0.008387     2.423
   1.20335  0.14862 -0.04385 -0.95789  0.001603  0.000659  0.007876     2.432
   1.21923  0.16445 -0.04503 -0.96656  0.001703  0.000697  0.007405     2.442
   1.23540  0.18059 -0.04604 -0.97323  0.001811  0.000737  0.006900     2.458
   1.25175  0.19691 -0.04691 -0.98019  0.001890  0.000771  0.006716     2.450
   1.26813  0.21328 -0.04763 -0.98651  0.001971  0.000805  0.006487     2.449
   1.28457  0.22971 -0.04819 -0.99185  0.002058  0.000838  0.006206     2.455
   1.30115  0.24629 -0.04860 -0.99608  0.002153  0.000873  0.005885     2.467
   1.31783  0.26296 -0.04890 -1.00009  0.002236  0.000905  0.005674     2.470
   1.33448  0.27961 -0.04908 -1.00426  0.002304  0.000935  0.005558     2.465
   1.35110  0.29624 -0.04912 -1.00753  0.002387  0.000966  0.005343     2.472
   1.36778  0.31291 -0.04903 -1.01016  0.002474  0.000997  0.005115     2.481
   1.38450  0.32963 -0.04882 -1.01242  0.002558  0.001028  0.004918     2.489
   1.40120  0.34633 -0.04849 -1.01441  0.002639  0.001058  0.004748     2.495
   1.41786  0.36298 -0.04803 -1.01596  0.002724  0.001088  0.004569     2.503
   1.43449  0.37961 -0.04745 -1.01674  0.002821  0.001120  0.004341     2.518
   1.45114  0.39623 -0.04673 -1.01684  0.002928  0.001154  0.004095     2.538
   1.46777  0.41285 -0.04588 -1.01619  0.003047  0.001189  0.003825     2.563
   1.48439  0.42943 -0.04489 -1.01502  0.003171  0.001225  0.003565     2.589
   1.50097  0.44597 -0.04378 -1.01290  0.003321  0.001265  0.003253     2.627
   1.51751  0.46247 -0.04253 -1.00984  0.003500  0.001307  0.002899     2.677
   1.53401  0.47892 -0.04112 -1.00577  0.003719  0.001355  0.002497     2.745
   1.55050  0.49532 -0.03957 -1.00062  0.003997  0.001407  0.002036     2.841
   1.56702  0.51176 -0.03785 -0.99451  0.004363  0.001465  0.001517     2.978
   1.58368  0.52831 -0.03597 -0.98794  0.004829  0.001526  0.000988     3.165
   1.60055  0.54506 -0.03395 -0.98162  0.005383  0.001585  0.000522     3.396
   1.61761  0.56199 -0.03181 -0.97596  0.006021  0.001639  0.000150     3.672
   1.63483  0.57906 -0.02959 -0.97109  0.006728  0.001688 -0.000111     3.986
   1.65218  0.59626 -0.02732 -0.96686  0.007493  0.001732 -0.000267     4.326
   1.66962  0.61355 -0.02500 -0.96312  0.008304  0.001773 -0.000342     4.682
   1.68712  0.63090 -0.02268 -0.95993  0.009134  0.001811 -0.000365     5.044
   1.70462  0.64824 -0.02037 -0.95721  0.009976  0.001845 -0.000363     5.408
   1.72205  0.66552 -0.01809 -0.95489  0.010817  0.001876 -0.000353     5.767
   1.73939  0.68272 -0.01585 -0.95288  0.011647  0.001904 -0.000339     6.117
   1.75663  0.69982 -0.01367 -0.95111  0.012444  0.001930 -0.000327     6.447
   1.77378  0.71684 -0.01156 -0.94952  0.013199  0.001955 -0.000317     6.751
   1.79085  0.73379 -0.00953 -0.94807  0.013897  0.001979 -0.000309     7.022
   1.80784  0.75067 -0.00760 -0.94671  0.014532  0.002002 -0.000302     7.258
   1.82474  0.76746 -0.00576 -0.94543  0.015095  0.002025 -0.000296     7.454
   1.84154  0.78418 -0.00404 -0.94419  0.015570  0.002048 -0.000291     7.604
   1.85823  0.80079 -0.00245 -0.94297  0.015950  0.002071 -0.000286     7.703
   1.87481  0.81731 -0.00100 -0.94175  0.016221  0.002094 -0.000283     7.746
   1.89126  0.83371  0.00030 -0.94052  0.016368  0.002118 -0.000279     7.726
   1.90759  0.85000  0.00143 -0.93925  0.016382  0.002144 -0.000276     7.642
   1.92381  0.86619  0.00238 -0.93792  0.016253  0.002170 -0.000274     7.489
   1.93987  0.88223  0.00314 -0.93654  0.015981  0.002198 -0.000272     7.271
   1.95573  0.89808  0.00370 -0.93508  0.015553  0.002227 -0.000271     6.984
   1.97131  0.91366  0.00404 -0.93353  0.014966  0.002257 -0.000272     6.630
   1.98653  0.92887  0.00415 -0.93188  0.014205  0.002289 -0.000275     6.207
   2.00124  0.94358  0.00401 -0.93016  0.013280  0.002320 -0.000279     5.723
   2.01526  0.95760  0.00361 -0.92839  0.012208  0.002351 -0.000275     5.192
   2.02837  0.97069  0.00296 -0.92668  0.011008  0.002379 -0.000239     4.626
   2.04040  0.98268  0.00205 -0.92385  0.009726  0.002425 -0.000047     4.011
   2.05125  0.99348  0.00090 -0.91721  0.008438  0.002527  0.000360     3.340
   2.05783  1.00000  0.00000 -0.91200  0.008489  0.002606  0.000429     3.258
   2.05783  1.00010 -0.00002  0.91200  0.049240  0.017062  0.000000     2.886
   2.06446  1.00660 -0.00133  0.91218  0.045170  0.017046  0.000000     2.650
   2.07221  1.01424 -0.00260  0.91138  0.042971  0.017115  0.000000     2.511
   2.08127  1.02320 -0.00393  0.91083  0.040804  0.017161  0.000000     2.378
   2.09186  1.03370 -0.00533  0.91067  0.038611  0.017173  0.000000     2.248
   2.10423  1.04598 -0.00682  0.91115  0.036346  0.017136  0.000000     2.121
   2.11869  1.06036 -0.00840  0.91246  0.034014  0.017036  0.000000     1.997
   2.13560  1.07718 -0.01007  0.91482  0.031645  0.016864  0.000000     1.877
   2.15535  1.09685 -0.01183  0.91836  0.029288  0.016617  0.000000     1.762
   2.17845  1.11987 -0.01367  0.92308  0.027004  0.016304  0.000000     1.656
   2.20544  1.14680 -0.01557  0.92885  0.024855  0.015942  0.000000     1.559
   2.23698  1.17828 -0.01753  0.93541  0.022892  0.015553  0.000000     1.472
   2.27386  1.21510 -0.01949  0.94237  0.021147  0.015162  0.000000     1.395
   2.31695  1.25815 -0.02144  0.94938  0.019630  0.014789  0.000000     1.327
   2.36732  1.30849 -0.02330  0.95613  0.018335  0.014447  0.000000     1.269
   2.42619  1.36734 -0.02502  0.96241  0.017242  0.014144  0.000000     1.219
   2.49501  1.43613 -0.02650  0.96811  0.016330  0.013880  0.000000     1.177
   2.57543  1.51655 -0.02764  0.97319  0.015575  0.013652  0.000000     1.141
   2.66944  1.61055 -0.02830  0.97765  0.014958  0.013458  0.000000     1.111
   2.77931  1.72042 -0.02831  0.98153  0.014458  0.013294  0.000000     1.088
   2.90773  1.84884 -0.02749  0.98483  0.014060  0.013158  0.000000     1.069
   3.05782  1.99892 -0.02558  0.98844  0.013707  0.013011  0.000000     1.054
