#    s        x        y     Ue/Vinf    Dstar     Theta      Cf       H
   0.00000  1.00000  0.00000  0.91229  0.036352  0.014486  0.000488     2.509
   0.00668  0.99360  0.00192  0.91731  0.034205  0.014134  0.000583     2.420
   0.01807  0.98272  0.00530  0.92521  0.031536  0.013610  0.000719     2.317
   0.03106  0.97032  0.00914  0.93542  0.028696  0.012982  0.000895     2.211
   0.04516  0.95680  0.01317  0.94742  0.025992  0.012303  0.001101     2.113
   0.06006  0.94246  0.01720  0.96054  0.023584  0.011624  0.001324     2.029
   0.07565  0.92739  0.02118  0.97426  0.021507  0.010973  0.001552     1.960
   0.09186  0.91167  0.02516  0.98841  0.019707  0.010354  0.001784     1.903
   0.10852  0.89549  0.02915  1.00308  0.018110  0.009764  0.002024     1.855
   0.12544  0.87905  0.03313  1.01815  0.016691  0.009204  0.002268     1.813
   0.14250  0.86245  0.03708  1.03344  0.015435  0.008679  0.002515     1.778
   0.15964  0.84577  0.04099  1.04887  0.014322  0.008188  0.002761     1.749
   0.17681  0.82904  0.04484  1.06436  0.013334  0.007730  0.003003     1.725
   0.19398  0.81229  0.04864  1.07988  0.012454  0.007303  0.003241     1.705
   0.21115  0.79553  0.05238  1.09532  0.011674  0.006906  0.003467     1.690
   0.22833  0.77875  0.05606  1.11084  0.010971  0.006532  0.003684     1.679
   0.24546  0.76200  0.05967  1.12653  0.010331  0.006179  0.003891     1.672
   0.26249  0.74535  0.06319  1.14216  0.009761  0.005849  0.004077     1.669
   0.27941  0.72877  0.06660  1.15736  0.009273  0.005546  0.004224     1.672
   0.29629  0.71222  0.06990  1.17216  0.008858  0.005267  0.004322     1.682
   0.31313  0.69568  0.07308  1.18652  0.008517  0.005010  0.004355     1.700
   0.32994  0.67915  0.07616  1.20051  0.008247  0.004771  0.004310     1.729
   0.34670  0.66266  0.07911  1.21429  0.008051  0.004548  0.004170     1.770
   0.36339  0.64620  0.08193  1.22792  0.007939  0.004337  0.003912     1.831
   0.38005  0.62976  0.08462  1.24163  0.007934  0.004134  0.003506     1.919
   0.39672  0.61329  0.08718  1.25630  0.008048  0.003929  0.002942     2.048
   0.41338  0.59681  0.08962  1.27356  0.008281  0.003699  0.002442     2.238
   0.42997  0.58038  0.09191  1.29533  0.008646  0.003424  0.001791     2.525
   0.44649  0.56400  0.09406  1.32441  0.009146  0.003076  0.000970     2.974
   0.46301  0.54760  0.09605  1.36330  0.009739  0.002634  0.000107     3.698
   0.47954  0.53117  0.09790  1.41681  0.010285  0.002064 -0.000386     4.983
   0.49603  0.51477  0.09961  1.46794  0.010613  0.001564 -0.000613     6.788
   0.51242  0.49845  0.10115  1.47083  0.010697  0.001539 -0.000619     6.951
   0.52875  0.48218  0.10252  1.47351  0.010549  0.001516 -0.000629     6.957
   0.54509  0.46588  0.10371  1.47614  0.010245  0.001495 -0.000642     6.854
   0.56144  0.44957  0.10475  1.47882  0.009815  0.001474 -0.000659     6.660
   0.57774  0.43329  0.10561  1.48162  0.009296  0.001453 -0.000680     6.400
   0.59394  0.41711  0.10630  1.48466  0.008727  0.001431 -0.000704     6.100
   0.61007  0.40098  0.10679  1.48805  0.008137  0.001408 -0.000732     5.780
   0.62617  0.38489  0.10708  1.49190  0.007541  0.001383 -0.000755     5.453
   0.64227  0.36879  0.10718  1.49633  0.006951  0.001356 -0.000765     5.126
   0.65836  0.35270  0.10708  1.50146  0.006366  0.001327 -0.000742     4.798
   0.67432  0.33674  0.10680  1.50735  0.005791  0.001295 -0.000645     4.471
   0.69010  0.32097  0.10629  1.51402  0.005264  0.001261 -0.000444     4.173
   0.70583  0.30526  0.10554  1.52143  0.004826  0.001226 -0.000168     3.937
   0.72167  0.28945  0.10454  1.52969  0.004441  0.001188  0.000182     3.739
   0.73747  0.27369  0.10335  1.53889  0.004052  0.001147  0.000703     3.533
   0.75302  0.25820  0.10195  1.54887  0.003695  0.001104  0.001368     3.347
   0.76841  0.24291  0.10027  1.55884  0.003434  0.001062  0.001917     3.233
   0.78386  0.22758  0.09831  1.56867  0.003238  0.001021  0.002320     3.170
   0.79934  0.21226  0.09610  1.57899  0.003042  0.000980  0.002800     3.106
   0.81467  0.19713  0.09366  1.58964  0.002851  0.000938  0.003362     3.041
   0.82983  0.18221  0.09095  1.59986  0.002701  0.000897  0.003757     3.010
   0.84493  0.16741  0.08797  1.61019  0.002572  0.000858  0.004045     2.998
   0.85995  0.15275  0.08473  1.62137  0.002435  0.000817  0.004416     2.982
   0.87475  0.13836  0.08125  1.63340  0.002290  0.000774  0.004911     2.957
   0.88915  0.12444  0.07757  1.64639  0.002129  0.000731  0.005694     2.912
   0.90314  0.11101  0.07364  1.65866  0.002006  0.000690  0.006131     2.908
   0.91683  0.09797  0.06946  1.67141  0.001908  0.000649  0.006207     2.938
   0.92993  0.08560  0.06517  1.68762  0.001746  0.000604  0.007344     2.891
   0.94206  0.07425  0.06087  1.70390  0.001581  0.000560  0.008967     2.826
   0.95332  0.06387  0.05649  1.71683  0.001498  0.000523  0.009015     2.866
   0.96371  0.05444  0.05215  1.73228  0.001416  0.000485  0.008907     2.920
   0.97301  0.04611  0.04801  1.75212  0.001279  0.000444  0.010589     2.879
   0.98119  0.03891  0.04412  1.77158  0.001145  0.000406  0.012982     2.820
   0.98837  0.03273  0.04046  1.78914  0.001026  0.000371  0.015741     2.764
   0.99470  0.02743  0.03701  1.80430  0.000924  0.000340  0.018759     2.715
   1.00030  0.02288  0.03375  1.81713  0.000829  0.000312  0.022508     2.660
   1.00527  0.01898  0.03066  1.82583  0.000754  0.000287  0.025808     2.629
   1.00973  0.01561  0.02774  1.83238  0.000681  0.000264  0.030235     2.583
   1.01375  0.01272  0.02495  1.83448  0.000616  0.000243  0.035254     2.536
   1.01739  0.01024  0.02228  1.83083  0.000560  0.000225  0.040432     2.495
   1.02073  0.00811  0.01971  1.82088  0.000514  0.000208  0.045173     2.466
   1.02380  0.00630  0.01724  1.80557  0.000468  0.000193  0.051613     2.420
   1.02664  0.00476  0.01485  1.78045  0.000431  0.000181  0.057208     2.385
   1.02926  0.00350  0.01255  1.74644  0.000401  0.000170  0.062285     2.353
   1.03171  0.00246  0.01033  1.70374  0.000379  0.000162  0.065222     2.338
   1.03400  0.00163  0.00819  1.65625  0.000362  0.000155  0.065922     2.343
   1.03618  0.00098  0.00612  1.60968  0.000353  0.000147  0.062515     2.396
   1.03826  0.00048  0.00410  1.57269  0.000329  0.000136  0.063637     2.423
   1.04024  0.00015  0.00214  1.53552  0.000293  0.000122  0.070756     2.409
   1.04215  0.00001  0.00024  1.48040  0.000253  0.000108  0.083614     2.351
   1.04400  0.00012 -0.00161  1.38079  0.000221  0.000098  0.096480     2.269
   1.04587  0.00052 -0.00343  1.22323  0.000210  0.000094  0.093923     2.223
   1.04780  0.00123 -0.00524  1.03238  0.000213  0.000096  0.079332     2.207
   1.04986  0.00223 -0.00703  0.83457  0.000223  0.000101  0.061461     2.200
   1.05205  0.00354 -0.00879  0.64795  0.000239  0.000108  0.043913     2.216
   1.05438  0.00514 -0.01048  0.47342  0.000254  0.000116  0.030839     2.192
   1.05689  0.00705 -0.01212  0.31513  0.000288  0.000130  0.017719     2.215
   1.05960  0.00924 -0.01371  0.18275  0.000320  0.000145  0.009353     2.204
   1.06254  0.01171 -0.01530  0.07239  0.000371  0.000167  0.003118     2.230
   1.06576  0.01450 -0.01689 -0.02588  0.000371  0.000167  0.001117     2.230
   1.06931  0.01766 -0.01852 -0.11227  0.000443  0.000197  0.003978     2.252
   1.07328  0.02125 -0.02021 -0.19245  0.000458  0.000206  0.006752     2.224
   1.07773  0.02534 -0.02197 -0.26589  0.000514  0.000226  0.007916     2.278
   1.08275  0.03002 -0.02380 -0.33376  0.000548  0.000244  0.009592     2.247
   1.08845  0.03539 -0.02569 -0.39775  0.000603  0.000264  0.010080     2.281
   1.09493  0.04158 -0.02763 -0.45864  0.000645  0.000284  0.010994     2.268
   1.10237  0.04875 -0.02960 -0.51359  0.000717  0.000311  0.010717     2.303
   1.11095  0.05710 -0.03158 -0.56134  0.000794  0.000343  0.010472     2.313
   1.12083  0.06678 -0.03358 -0.60476  0.000876  0.000377  0.010152     2.321
   1.13204  0.07781 -0.03556 -0.64543  0.000953  0.000411  0.009962     2.320
   1.14448  0.09010 -0.03747 -0.67996  0.001055  0.000450  0.009260     2.346
   1.15809  0.10359 -0.03926 -0.71031  0.001147  0.000488  0.008881     2.348
   1.17266  0.11806 -0.04096 -0.73717  0.001241  0.000527  0.008466     2.354
   1.18781  0.13314 -0.04249 -0.76231  0.001315  0.000561  0.008327     2.345
   1.20335  0.14862 -0.04385 -0.78366  0.001408  0.000597  0.007883     2.360
   1.21923  0.16445 -0.04503 -0.80195  0.001497  0.000632  0.007527     2.368
   1.23540  0.18059 -0.04604 -0.81746  0.001590  0.000668  0.007148     2.379
   1.25175  0.19691 -0.04691 -0.83233  0.001659  0.000699  0.007027     2.372
   1.26813  0.21328 -0.04763 -0.84586  0.001731  0.000730  0.006835     2.373
   1.28457  0.22971 -0.04819 -0.85752  0.001812  0.000761  0.006559     2.382
   1.30115  0.24629 -0.04860 -0.86776  0.001893  0.000792  0.006301     2.391
   1.31783  0.26296 -0.04890 -0.87718  0.001967  0.000822  0.006113     2.394
   1.33448  0.27961 -0.04908 -0.88659  0.002023  0.000848  0.006051     2.386
   1.35110  0.29624 -0.04912 -0.89466  0.002097  0.000876  0.005846     2.394
   1.36778  0.31291 -0.04903 -0.90182  0.002171  0.000904  0.005647     2.402
   1.38450  0.32963 -0.04882 -0.90850  0.002239  0.000931  0.005496     2.405
   1.40120  0.34633 -0.04849 -0.91479  0.002303  0.000957  0.005376     2.406
   1.41786  0.36298 -0.04803 -0.92029  0.002374  0.000984  0.005212     2.413
   1.43449  0.37961 -0.04745 -0.92498  0.002450  0.001011  0.005024     2.423
   1.45114  0.39623 -0.04673 -0.92904  0.002528  0.001039  0.004843     2.433
   1.46777  0.41285 -0.04588 -0.93239  0.002611  0.001068  0.004648     2.445
   1.48439  0.42943 -0.04489 -0.93503  0.002698  0.001098  0.004446     2.459
   1.50097  0.44597 -0.04378 -0.93695  0.002793  0.001128  0.004231     2.475
   1.51751  0.46247 -0.04253 -0.93797  0.002900  0.001161  0.003984     2.497
   1.53401  0.47892 -0.04112 -0.93796  0.003026  0.001198  0.003697     2.527
   1.55050  0.49532 -0.03957 -0.93673  0.003180  0.001238  0.003353     2.569
   1.56702  0.51176 -0.03785 -0.93410  0.003376  0.001284  0.002942     2.629
   1.58368  0.52831 -0.03597 -0.93025  0.003612  0.001335  0.002497     2.706
   1.60055  0.54506 -0.03395 -0.92562  0.003881  0.001390  0.002070     2.792
   1.61761  0.56199 -0.03181 -0.92065  0.004165  0.001445  0.001697     2.882
   1.63483  0.57906 -0.02959 -0.91553  0.004463  0.001502  0.001377     2.972
   1.65218  0.59626 -0.02732 -0.91044  0.004769  0.001557  0.001108     3.062
   1.66962  0.61355 -0.02500 -0.90545  0.005081  0.001612  0.000882     3.152
   1.68712  0.63090 -0.02268 -0.90068  0.005387  0.001666  0.000703     3.234
   1.70462  0.64824 -0.02037 -0.89613  0.005689  0.001718  0.000557     3.312
   1.72205  0.66552 -0.01809 -0.89183  0.005985  0.001768  0.000438     3.385
   1.73939  0.68272 -0.01585 -0.88775  0.006279  0.001817  0.000339     3.457
   1.75663  0.69982 -0.01367 -0.88392  0.006557  0.001864  0.000262     3.519
   1.77378  0.71684 -0.01156 -0.88031  0.006813  0.001909  0.000206     3.569
   1.79085  0.73379 -0.00953 -0.87691  0.007044  0.001953  0.000167     3.607
   1.80784  0.75067 -0.00760 -0.87369  0.007249  0.001995  0.000141     3.633
   1.82474  0.76746 -0.00576 -0.87064  0.007424  0.002036  0.000128     3.646
   1.84154  0.78418 -0.00404 -0.86777  0.007560  0.002076  0.000128     3.641
   1.85823  0.80079 -0.00245 -0.86506  0.007658  0.002115  0.000141     3.621
   1.87481  0.81731 -0.00100 -0.86252  0.007705  0.002151  0.000169     3.582
   1.89126  0.83371  0.00030 -0.86020  0.007697  0.002186  0.000216     3.521
   1.90759  0.85000  0.00143 -0.85812  0.007631  0.002218  0.000283     3.441
   1.92381  0.86619  0.00238 -0.85638  0.007503  0.002246  0.000377     3.341
   1.93987  0.88223  0.00314 -0.85507  0.007322  0.002269  0.000498     3.227
   1.95573  0.89808  0.00370 -0.85436  0.007083  0.002285  0.000656     3.100
   1.97131  0.91366  0.00404 -0.85449  0.006790  0.002291  0.000857     2.963
   1.98653  0.92887  0.00415 -0.85583  0.006431  0.002284  0.001120     2.816
   2.00124  0.94358  0.00401 -0.85880  0.006015  0.002260  0.001460     2.662
   2.01526  0.95760  0.00361 -0.86394  0.005550  0.002214  0.001899     2.506
   2.02837  0.97069  0.00296 -0.87225  0.005024  0.002141  0.002493     2.346
   2.04040  0.98268  0.00205 -0.88525  0.004433  0.002032  0.003337     2.181
   2.05125  0.99348  0.00090 -0.90654  0.003745  0.001869  0.004683     2.003
   2.05783  1.00000  0.00000 -0.91229  0.003657  0.001842  0.004893     1.986
   2.05783  1.00010 -0.00002  0.91229  0.040009  0.016328  0.000000     2.450
   2.06446  1.00660 -0.00131  0.91514  0.037545  0.016106  0.000000     2.331
   2.07221  1.01425 -0.00255  0.91615  0.036209  0.016030  0.000000     2.259
   2.08127  1.02322 -0.00382  0.91722  0.034886  0.015951  0.000000     2.187
   2.09186  1.03372 -0.00513  0.91845  0.033534  0.015862  0.000000     2.114
   2.10423  1.04602 -0.00650  0.92000  0.032121  0.015754  0.000000     2.039
   2.11869  1.06042 -0.00790  0.92196  0.030639  0.015620  0.000000     1.962
   2.13560  1.07726 -0.00935  0.92444  0.029099  0.015456  0.000000     1.883
   2.15535  1.09696 -0.01081  0.92750  0.027520  0.015261  0.000000     1.803
   2.17845  1.12001 -0.01226  0.93117  0.025931  0.015036  0.000000     1.725
   2.20544  1.14696 -0.01366  0.93541  0.024363  0.014787  0.000000     1.648
   2.23698  1.17848 -0.01497  0.94014  0.022851  0.014520  0.000000     1.574
   2.27386  1.21533 -0.01611  0.94522  0.021422  0.014246  0.000000     1.504
   2.31695  1.25842 -0.01700  0.95048  0.020100  0.013974  0.000000     1.438
   2.36732  1.30879 -0.01754  0.95576  0.018898  0.013713  0.000000     1.378
   2.42619  1.36766 -0.01759  0.96090  0.017820  0.013469  0.000000     1.323
   2.49501  1.43647 -0.01699  0.96579  0.016868  0.013245  0.000000     1.274
   2.57543  1.51688 -0.01552  0.97035  0.016035  0.013044  0.000000     1.229
   2.66944  1.61085 -0.01294  0.97453  0.015314  0.012865  0.000000     1.190
   2.77931  1.72065 -0.00895  0.97829  0.014698  0.012709  0.000000     1.156
   2.90773  1.84894 -0.00318  0.98161  0.014178  0.012574  0.000000     1.128
   3.05782  1.99882  0.00479  0.98568  0.013692  0.012413  0.000000     1.103
