#    s        x        y     Ue/Vinf    Dstar     Theta      Cf       H
   0.00000  1.00000  0.00000  0.89743  0.039827  0.014367  0.000265     2.772
   0.00668  0.99360  0.00192  0.90233  0.037210  0.014002  0.000341     2.657
   0.01807  0.98272  0.00530  0.90967  0.034559  0.013486  0.000420     2.563
   0.03106  0.97032  0.00914  0.91882  0.031839  0.012886  0.000514     2.471
   0.04516  0.95680  0.01317  0.92931  0.029317  0.012249  0.000614     2.393
   0.06006  0.94246  0.01720  0.94064  0.027128  0.011612  0.000708     2.336
   0.07565  0.92739  0.02118  0.95245  0.025299  0.010996  0.000786     2.301
   0.09186  0.91167  0.02516  0.96467  0.023773  0.010403  0.000842     2.285
   0.10852  0.89549  0.02915  0.97735  0.022480  0.009829  0.000876     2.287
   0.12544  0.87905  0.03313  0.99046  0.021400  0.009274  0.000883     2.307
   0.14250  0.86245  0.03708  1.00404  0.020520  0.008736  0.000859     2.349
   0.15964  0.84577  0.04099  1.01824  0.019830  0.008208  0.000800     2.416
   0.17681  0.82904  0.04484  1.03337  0.019317  0.007678  0.000704     2.516
   0.19398  0.81229  0.04864  1.04991  0.018975  0.007134  0.000572     2.660
   0.21115  0.79553  0.05238  1.06860  0.018794  0.006555  0.000419     2.867
   0.22833  0.77875  0.05606  1.09054  0.018749  0.005917  0.000258     3.169
   0.24546  0.76200  0.05967  1.11699  0.018800  0.005199  0.000063     3.616
   0.26249  0.74535  0.06319  1.15042  0.018899  0.004359 -0.000133     4.335
   0.27941  0.72877  0.06660  1.18759  0.019015  0.003504 -0.000237     5.427
   0.29629  0.71222  0.06990  1.22935  0.019045  0.002628 -0.000297     7.247
   0.31313  0.69568  0.07308  1.27997  0.018807  0.001670 -0.000359    11.259
   0.32994  0.67915  0.07616  1.27950  0.018639  0.001681 -0.000450    11.087
   0.34670  0.66266  0.07911  1.28049  0.018170  0.001667 -0.000456    10.902
   0.36339  0.64620  0.08193  1.28140  0.017512  0.001654 -0.000461    10.588
   0.38005  0.62976  0.08462  1.28229  0.016737  0.001642 -0.000467    10.192
   0.39672  0.61329  0.08718  1.28320  0.015873  0.001631 -0.000473     9.734
   0.41338  0.59681  0.08962  1.28416  0.014934  0.001619 -0.000481     9.224
   0.42997  0.58038  0.09191  1.28521  0.013946  0.001607 -0.000490     8.678
   0.44649  0.56400  0.09406  1.28641  0.012950  0.001594 -0.000501     8.123
   0.46301  0.54760  0.09605  1.28782  0.011955  0.001579 -0.000514     7.569
   0.47954  0.53117  0.09790  1.28951  0.010970  0.001563 -0.000531     7.019
   0.49603  0.51477  0.09961  1.29153  0.009990  0.001544 -0.000554     6.469
   0.51242  0.49845  0.10115  1.29402  0.009056  0.001523 -0.000581     5.946
   0.52875  0.48218  0.10252  1.29708  0.008183  0.001498 -0.000605     5.462
   0.54509  0.46588  0.10371  1.30086  0.007383  0.001470 -0.000609     5.022
   0.56144  0.44957  0.10475  1.30544  0.006634  0.001438 -0.000557     4.613
   0.57774  0.43329  0.10561  1.31086  0.005950  0.001402 -0.000404     4.243
   0.59394  0.41711  0.10630  1.31701  0.005346  0.001364 -0.000122     3.918
   0.61007  0.40098  0.10679  1.32402  0.004826  0.001323  0.000281     3.648
   0.62617  0.38489  0.10708  1.33185  0.004385  0.001278  0.000773     3.431
   0.64227  0.36879  0.10718  1.34025  0.004011  0.001231  0.001322     3.258
   0.65836  0.35270  0.10708  1.34893  0.003689  0.001183  0.001916     3.118
   0.67432  0.33674  0.10680  1.35785  0.003388  0.001135  0.002627     2.986
   0.69010  0.32097  0.10629  1.36622  0.003139  0.001089  0.003329     2.883
   0.70583  0.30526  0.10554  1.37329  0.002956  0.001047  0.003864     2.824
   0.72167  0.28945  0.10454  1.37951  0.002808  0.001007  0.004290     2.788
   0.73747  0.27369  0.10335  1.38632  0.002630  0.000965  0.004990     2.725
   0.75302  0.25820  0.10195  1.39261  0.002452  0.000923  0.005852     2.656
   0.76841  0.24291  0.10027  1.39629  0.002331  0.000888  0.006399     2.625
   0.78386  0.22758  0.09831  1.39844  0.002240  0.000856  0.006726     2.618
   0.79934  0.21226  0.09610  1.40090  0.002135  0.000821  0.007232     2.599
   0.81467  0.19713  0.09366  1.40291  0.002026  0.000787  0.007842     2.575
   0.82983  0.18221  0.09095  1.40363  0.001930  0.000754  0.008370     2.561
   0.84493  0.16741  0.08797  1.40304  0.001853  0.000722  0.008665     2.565
   0.85995  0.15275  0.08473  1.40290  0.001765  0.000689  0.009128     2.563
   0.87475  0.13836  0.08125  1.40270  0.001670  0.000654  0.009724     2.555
   0.88915  0.12444  0.07757  1.40270  0.001553  0.000616  0.010875     2.520
   0.90314  0.11101  0.07364  1.39919  0.001467  0.000583  0.011532     2.516
   0.91683  0.09797  0.06946  1.39427  0.001407  0.000552  0.011534     2.551
   0.92993  0.08560  0.06517  1.39310  0.001294  0.000512  0.012897     2.524
   0.94206  0.07425  0.06087  1.38980  0.001166  0.000474  0.015275     2.461
   0.95332  0.06387  0.05649  1.37823  0.001103  0.000445  0.015748     2.477
   0.96371  0.05444  0.05215  1.36796  0.001050  0.000416  0.015656     2.521
   0.97301  0.04611  0.04801  1.36278  0.000955  0.000382  0.017523     2.501
   0.98119  0.03891  0.04412  1.35488  0.000873  0.000351  0.019318     2.489
   0.98837  0.03273  0.04046  1.34487  0.000789  0.000321  0.021967     2.455
   0.99470  0.02743  0.03701  1.32971  0.000722  0.000296  0.024156     2.438
   1.00030  0.02288  0.03375  1.31115  0.000660  0.000273  0.026608     2.417
   1.00527  0.01898  0.03066  1.28831  0.000607  0.000252  0.028775     2.405
   1.00973  0.01561  0.02774  1.26194  0.000557  0.000233  0.031189     2.388
   1.01375  0.01272  0.02495  1.23080  0.000512  0.000216  0.033737     2.370
   1.01739  0.01024  0.02228  1.19348  0.000470  0.000200  0.036514     2.345
   1.02073  0.00811  0.01971  1.14904  0.000438  0.000187  0.037810     2.342
   1.02380  0.00630  0.01724  1.09900  0.000400  0.000174  0.040900     2.306
   1.02664  0.00476  0.01485  1.03739  0.000376  0.000164  0.041744     2.291
   1.02926  0.00350  0.01255  0.97232  0.000360  0.000155  0.039783     2.317
   1.03171  0.00246  0.01033  0.90086  0.000323  0.000145  0.044692     2.226
   1.03400  0.00163  0.00819  0.81299  0.000329  0.000144  0.037473     2.285
   1.03618  0.00098  0.00612  0.73585  0.000307  0.000136  0.037115     2.263
   1.03826  0.00048  0.00410  0.64958  0.000292  0.000128  0.034009     2.275
   1.04024  0.00015  0.00214  0.55736  0.000269  0.000119  0.031790     2.269
   1.04215  0.00001  0.00024  0.44901  0.000246  0.000109  0.028309     2.257
   1.04400  0.00012 -0.00161  0.31739  0.000228  0.000102  0.021910     2.237
   1.04587  0.00052 -0.00343  0.16319  0.000221  0.000099  0.011574     2.230
   1.04780  0.00123 -0.00524 -0.00454  0.000221  0.000099  0.000579     2.230
   1.04986  0.00223 -0.00703 -0.14608  0.000262  0.000118  0.009058     2.232
   1.05205  0.00354 -0.00879 -0.27317  0.000272  0.000122  0.016173     2.235
   1.05438  0.00514 -0.01048 -0.38600  0.000299  0.000132  0.020165     2.263
   1.05689  0.00705 -0.01212 -0.47401  0.000341  0.000149  0.021127     2.290
   1.05960  0.00924 -0.01371 -0.53864  0.000395  0.000170  0.020189     2.318
   1.06254  0.01171 -0.01530 -0.59690  0.000425  0.000186  0.021361     2.286
   1.06576  0.01450 -0.01689 -0.64759  0.000473  0.000204  0.020207     2.320
   1.06931  0.01766 -0.01852 -0.69068  0.000519  0.000223  0.019486     2.327
   1.07328  0.02125 -0.02021 -0.73186  0.000559  0.000241  0.019290     2.321
   1.07773  0.02534 -0.02197 -0.77027  0.000606  0.000260  0.018517     2.332
   1.08275  0.03002 -0.02380 -0.80627  0.000654  0.000280  0.017874     2.337
   1.08845  0.03539 -0.02569 -0.84182  0.000700  0.000300  0.017494     2.334
   1.09493  0.04158 -0.02763 -0.87232  0.000770  0.000325  0.015985     2.365
   1.10237  0.04875 -0.02960 -0.89912  0.000841  0.000354  0.014892     2.378
   1.11095  0.05710 -0.03158 -0.91904  0.000944  0.000390  0.012978     2.421
   1.12083  0.06678 -0.03358 -0.93533  0.001045  0.000429  0.011775     2.435
   1.13204  0.07781 -0.03556 -0.95063  0.001140  0.000468  0.010986     2.433
   1.14448  0.09010 -0.03747 -0.96334  0.001250  0.000511  0.009997     2.448
   1.15809  0.10359 -0.03926 -0.97280  0.001374  0.000556  0.008989     2.469
   1.17266  0.11806 -0.04096 -0.98208  0.001474  0.000599  0.008528     2.461
   1.18781  0.13314 -0.04249 -0.99109  0.001567  0.000638  0.008147     2.455
   1.20335  0.14862 -0.04385 -0.99912  0.001663  0.000677  0.007731     2.456
   1.21923  0.16445 -0.04503 -1.00534  0.001770  0.000717  0.007213     2.469
   1.23540  0.18059 -0.04604 -1.01020  0.001877  0.000756  0.006749     2.481
   1.25175  0.19691 -0.04691 -1.01502  0.001965  0.000793  0.006492     2.478
   1.26813  0.21328 -0.04763 -1.02014  0.002038  0.000825  0.006357     2.469
   1.28457  0.22971 -0.04819 -1.02369  0.002137  0.000861  0.005999     2.482
   1.30115  0.24629 -0.04860 -1.02651  0.002234  0.000896  0.005687     2.493
   1.31783  0.26296 -0.04890 -1.02915  0.002321  0.000930  0.005465     2.497
   1.33448  0.27961 -0.04908 -1.03230  0.002386  0.000959  0.005382     2.488
   1.35110  0.29624 -0.04912 -1.03438  0.002476  0.000991  0.005145     2.498
   1.36778  0.31291 -0.04903 -1.03593  0.002567  0.001024  0.004914     2.508
   1.38450  0.32963 -0.04882 -1.03722  0.002655  0.001055  0.004719     2.516
   1.40120  0.34633 -0.04849 -1.03830  0.002739  0.001086  0.004550     2.522
   1.41786  0.36298 -0.04803 -1.03871  0.002836  0.001118  0.004332     2.535
   1.43449  0.37961 -0.04745 -1.03856  0.002939  0.001152  0.004102     2.552
   1.45114  0.39623 -0.04673 -1.03777  0.003054  0.001186  0.003851     2.574
   1.46777  0.41285 -0.04588 -1.03610  0.003189  0.001224  0.003552     2.606
   1.48439  0.42943 -0.04489 -1.03408  0.003324  0.001262  0.003287     2.635
   1.50097  0.44597 -0.04378 -1.03088  0.003502  0.001304  0.002930     2.685
   1.51751  0.46247 -0.04253 -1.02698  0.003704  0.001349  0.002564     2.745
   1.53401  0.47892 -0.04112 -1.02201  0.003963  0.001400  0.002127     2.832
   1.55050  0.49532 -0.03957 -1.01617  0.004293  0.001455  0.001644     2.951
   1.56702  0.51176 -0.03785 -1.00970  0.004725  0.001513  0.001120     3.122
   1.58368  0.52831 -0.03597 -1.00321  0.005276  0.001572  0.000609     3.355
   1.60055  0.54506 -0.03395 -0.99737  0.005931  0.001627  0.000187     3.645
   1.61761  0.56199 -0.03181 -0.99241  0.006678  0.001675 -0.000113     3.987
   1.63483  0.57906 -0.02959 -0.98815  0.007502  0.001718 -0.000288     4.366
   1.65218  0.59626 -0.02732 -0.98446  0.008382  0.001758 -0.000364     4.768
   1.66962  0.61355 -0.02500 -0.98138  0.009304  0.001794 -0.000381     5.188
   1.68712  0.63090 -0.02268 -0.97880  0.010241  0.001825 -0.000375     5.610
   1.70462  0.64824 -0.02037 -0.97663  0.011181  0.001854 -0.000360     6.031
   1.72205  0.66552 -0.01809 -0.97478  0.012109  0.001880 -0.000345     6.442
   1.73939  0.68272 -0.01585 -0.97318  0.013013  0.001903 -0.000333     6.837
   1.75663  0.69982 -0.01367 -0.97177  0.013875  0.001926 -0.000324     7.205
   1.77378  0.71684 -0.01156 -0.97048  0.014675  0.001947 -0.000316     7.538
   1.79085  0.73379 -0.00953 -0.96928  0.015406  0.001967 -0.000309     7.831
   1.80784  0.75067 -0.00760 -0.96815  0.016061  0.001988 -0.000303     8.081
   1.82474  0.76746 -0.00576 -0.96705  0.016625  0.002008 -0.000298     8.280
   1.84154  0.78418 -0.00404 -0.96597  0.017087  0.002029 -0.000294     8.423
   1.85823  0.80079 -0.00245 -0.96489  0.017435  0.002050 -0.000290     8.505
   1.87481  0.81731 -0.00100 -0.96379  0.017654  0.002072 -0.000286     8.520
   1.89126  0.83371  0.00030 -0.96265  0.017730  0.002095 -0.000283     8.461
   1.90759  0.85000  0.00143 -0.96145  0.017650  0.002120 -0.000281     8.325
   1.92381  0.86619  0.00238 -0.96018  0.017400  0.002147 -0.000278     8.106
   1.93987  0.88223  0.00314 -0.95882  0.016976  0.002175 -0.000277     7.806
   1.95573  0.89808  0.00370 -0.95734  0.016361  0.002205 -0.000276     7.421
   1.97131  0.91366  0.00404 -0.95574  0.015539  0.002237 -0.000277     6.948
   1.98653  0.92887  0.00415 -0.95399  0.014482  0.002270 -0.000281     6.380
   2.00124  0.94358  0.00401 -0.94815  0.013197  0.002381 -0.000188     5.541
   2.01526  0.95760  0.00361 -0.92623  0.011776  0.002796 -0.000094     4.212
   2.02837  0.97069  0.00296 -0.90897  0.010212  0.003115  0.000340     3.278
   2.04040  0.98268  0.00205 -0.90088  0.008634  0.003262  0.001096     2.647
   2.05125  0.99348  0.00090 -0.90312  0.007136  0.003236  0.002096     2.205
   2.05783  1.00000  0.00000 -0.89743  0.007110  0.003331  0.002217     2.134
   2.05783  1.00010 -0.00002  0.89743  0.046936  0.017697  0.000000     2.652
   2.06446  1.00660 -0.00133  0.89941  0.042734  0.017521  0.000000     2.439
   2.07221  1.01424 -0.00261  0.89966  0.040455  0.017500  0.000000     2.312
   2.08127  1.02320 -0.00395  0.90024  0.038227  0.017452  0.000000     2.190
   2.09186  1.03369 -0.00537  0.90133  0.035999  0.017365  0.000000     2.073
   2.10423  1.04597 -0.00689  0.90317  0.033732  0.017223  0.000000     1.959
   2.11869  1.06034 -0.00851  0.90598  0.031439  0.017015  0.000000     1.848
   2.13560  1.07716 -0.01023  0.90989  0.029155  0.016739  0.000000     1.742
   2.15535  1.09683 -0.01205  0.91495  0.026930  0.016400  0.000000     1.642
   2.17845  1.11984 -0.01398  0.92106  0.024819  0.016012  0.000000     1.550
   2.20544  1.14676 -0.01600  0.92801  0.022873  0.015595  0.000000     1.467
   2.23698  1.17823 -0.01810  0.93544  0.021125  0.015175  0.000000     1.392
   2.27386  1.21504 -0.02025  0.94300  0.019593  0.014770  0.000000     1.327
   2.31695  1.25808 -0.02243  0.95035  0.018274  0.014396  0.000000     1.269
   2.36732  1.30841 -0.02459  0.95726  0.017155  0.014062  0.000000     1.220
   2.42619  1.36724 -0.02668  0.96359  0.016216  0.013769  0.000000     1.178
   2.49501  1.43603 -0.02863  0.96927  0.015436  0.013515  0.000000     1.142
   2.57543  1.51643 -0.03035  0.97430  0.014795  0.013298  0.000000     1.113
   2.66944  1.61043 -0.03173  0.97869  0.014273  0.013113  0.000000     1.088
   2.77931  1.72029 -0.03264  0.98248  0.013854  0.012958  0.000000     1.069
   2.90773  1.84871 -0.03292  0.98569  0.013521  0.012828  0.000000     1.054
   3.05782  1.99881 -0.03238  0.98907  0.013229  0.012695  0.000000     1.042
