#    s        x        y     Ue/Vinf    Dstar     Theta      Cf       H
   0.00000  1.00000  0.00000  0.90751  0.040993  0.012482  0.000068     3.284
   0.00668  0.99360  0.00192  0.91124  0.038541  0.012217  0.000099     3.155
   0.01807  0.98272  0.00530  0.91790  0.036181  0.011770  0.000132     3.074
   0.03106  0.97032  0.00914  0.92624  0.033795  0.011244  0.000167     3.006
   0.04516  0.95680  0.01317  0.93604  0.031632  0.010667  0.000193     2.965
   0.06006  0.94246  0.01720  0.94708  0.029815  0.010062  0.000203     2.963
   0.07565  0.92739  0.02118  0.95936  0.028369  0.009434  0.000191     3.007
   0.09186  0.91167  0.02516  0.97314  0.027239  0.008777  0.000164     3.104
   0.10852  0.89549  0.02915  0.98876  0.026347  0.008080  0.000123     3.261
   0.12544  0.87905  0.03313  1.00661  0.025664  0.007338  0.000060     3.497
   0.14250  0.86245  0.03708  1.02831  0.025136  0.006500 -0.000024     3.867
   0.15964  0.84577  0.04099  1.05325  0.024738  0.005612 -0.000106     4.408
   0.17681  0.82904  0.04484  1.08055  0.024425  0.004717 -0.000160     5.178
   0.19398  0.81229  0.04864  1.11100  0.024126  0.003803 -0.000194     6.344
   0.21115  0.79553  0.05238  1.14681  0.023736  0.002826 -0.000247     8.398
   0.22833  0.77875  0.05606  1.19280  0.023047  0.001697 -0.000310    13.584
   0.24546  0.76200  0.05967  1.19087  0.022602  0.001743 -0.000399    12.966
   0.26249  0.74535  0.06319  1.19147  0.021839  0.001733 -0.000402    12.604
   0.27941  0.72877  0.06660  1.19201  0.020911  0.001724 -0.000406    12.130
   0.29629  0.71222  0.06990  1.19253  0.019870  0.001716 -0.000409    11.579
   0.31313  0.69568  0.07308  1.19306  0.018751  0.001708 -0.000414    10.977
   0.32994  0.67915  0.07616  1.19363  0.017581  0.001700 -0.000419    10.340
   0.34670  0.66266  0.07911  1.19427  0.016378  0.001692 -0.000424     9.680
   0.36339  0.64620  0.08193  1.19502  0.015169  0.001682 -0.000432     9.016
   0.38005  0.62976  0.08462  1.19593  0.013974  0.001671 -0.000441     8.361
   0.39672  0.61329  0.08718  1.19706  0.012807  0.001658 -0.000452     7.724
   0.41338  0.59681  0.08962  1.19845  0.011663  0.001643 -0.000467     7.100
   0.42997  0.58038  0.09191  1.20019  0.010559  0.001625 -0.000487     6.499
   0.44649  0.56400  0.09406  1.20239  0.009528  0.001603 -0.000512     5.943
   0.46301  0.54760  0.09605  1.20516  0.008571  0.001578 -0.000534     5.431
   0.47954  0.53117  0.09790  1.20863  0.007686  0.001549 -0.000534     4.963
   0.49603  0.51477  0.09961  1.21287  0.006869  0.001515 -0.000475     4.533
   0.51242  0.49845  0.10115  1.21788  0.006142  0.001479 -0.000312     4.154
   0.52875  0.48218  0.10252  1.22357  0.005526  0.001439 -0.000037     3.841
   0.54509  0.46588  0.10371  1.23010  0.004995  0.001395  0.000342     3.581
   0.56144  0.44957  0.10475  1.23738  0.004540  0.001347  0.000804     3.370
   0.57774  0.43329  0.10561  1.24515  0.004147  0.001298  0.001337     3.195
   0.59394  0.41711  0.10630  1.25299  0.003817  0.001248  0.001892     3.058
   0.61007  0.40098  0.10679  1.26055  0.003544  0.001200  0.002439     2.953
   0.62617  0.38489  0.10708  1.26759  0.003316  0.001154  0.002957     2.872
   0.64227  0.36879  0.10718  1.27402  0.003121  0.001111  0.003447     2.810
   0.65836  0.35270  0.10708  1.27998  0.002942  0.001068  0.003953     2.755
   0.67432  0.33674  0.10680  1.28572  0.002760  0.001025  0.004584     2.692
   0.69010  0.32097  0.10629  1.29034  0.002600  0.000985  0.005201     2.640
   0.70583  0.30526  0.10554  1.29308  0.002485  0.000950  0.005610     2.616
   0.72167  0.28945  0.10454  1.29476  0.002393  0.000917  0.005885     2.609
   0.73747  0.27369  0.10335  1.29738  0.002261  0.000880  0.006527     2.570
   0.75302  0.25820  0.10195  1.29899  0.002128  0.000843  0.007300     2.524
   0.76841  0.24291  0.10027  1.29802  0.002027  0.000811  0.007866     2.500
   0.78386  0.22758  0.09831  1.29469  0.001961  0.000784  0.008082     2.503
   0.79934  0.21226  0.09610  1.29180  0.001875  0.000753  0.008545     2.491
   0.81467  0.19713  0.09366  1.28831  0.001779  0.000721  0.009203     2.468
   0.82983  0.18221  0.09095  1.28245  0.001704  0.000692  0.009622     2.462
   0.84493  0.16741  0.08797  1.27541  0.001636  0.000663  0.009923     2.466
   0.85995  0.15275  0.08473  1.26822  0.001560  0.000633  0.010367     2.465
   0.87475  0.13836  0.08125  1.26034  0.001477  0.000601  0.010932     2.460
   0.88915  0.12444  0.07757  1.25180  0.001371  0.000566  0.012124     2.425
   0.90314  0.11101  0.07364  1.23821  0.001300  0.000536  0.012642     2.425
   0.91683  0.09797  0.06946  1.22325  0.001243  0.000507  0.012715     2.452
   0.92993  0.08560  0.06517  1.21048  0.001148  0.000471  0.013828     2.437
   0.94206  0.07425  0.06087  1.19442  0.001034  0.000435  0.016082     2.377
   0.95332  0.06387  0.05649  1.16861  0.000979  0.000410  0.016427     2.389
   0.96371  0.05444  0.05215  1.14375  0.000923  0.000383  0.016687     2.411
   0.97301  0.04611  0.04801  1.12118  0.000851  0.000353  0.017751     2.411
   0.98119  0.03891  0.04412  1.09693  0.000771  0.000323  0.019663     2.385
   0.98837  0.03273  0.04046  1.06724  0.000706  0.000298  0.021199     2.370
   0.99470  0.02743  0.03701  1.03379  0.000650  0.000275  0.022426     2.364
   1.00030  0.02288  0.03375  0.99682  0.000593  0.000253  0.024241     2.340
   1.00527  0.01898  0.03066  0.95376  0.000548  0.000235  0.025293     2.332
   1.00973  0.01561  0.02774  0.90694  0.000507  0.000218  0.026149     2.325
   1.01375  0.01272  0.02495  0.85436  0.000463  0.000202  0.027715     2.295
   1.01739  0.01024  0.02228  0.79448  0.000437  0.000189  0.026979     2.307
   1.02073  0.00811  0.01971  0.73191  0.000401  0.000175  0.027574     2.288
   1.02380  0.00630  0.01724  0.65784  0.000370  0.000164  0.027559     2.258
   1.02664  0.00476  0.01485  0.57703  0.000355  0.000156  0.024664     2.280
   1.02926  0.00350  0.01255  0.49143  0.000326  0.000146  0.023752     2.238
   1.03171  0.00246  0.01033  0.39795  0.000315  0.000139  0.019191     2.273
   1.03400  0.00163  0.00819  0.29648  0.000293  0.000133  0.016443     2.195
   1.03618  0.00098  0.00612  0.19347  0.000304  0.000133  0.009467     2.277
   1.03826  0.00048  0.00410  0.08613  0.000248  0.000111  0.005213     2.230
   1.04024  0.00015  0.00214 -0.05045  0.000248  0.000111  0.003670     2.230
   1.04215  0.00001  0.00024 -0.18662  0.000240  0.000108  0.012904     2.226
   1.04400  0.00012 -0.00161 -0.34052  0.000221  0.000100  0.025620     2.210
   1.04587  0.00052 -0.00343 -0.50079  0.000223  0.000099  0.035970     2.243
   1.04780  0.00123 -0.00524 -0.63304  0.000248  0.000109  0.039331     2.280
   1.04986  0.00223 -0.00703 -0.74962  0.000264  0.000117  0.044496     2.259
   1.05205  0.00354 -0.00879 -0.84510  0.000297  0.000129  0.042522     2.309
   1.05438  0.00514 -0.01048 -0.91503  0.000335  0.000144  0.039841     2.333
   1.05689  0.00705 -0.01212 -0.95879  0.000394  0.000164  0.033232     2.399
   1.05960  0.00924 -0.01371 -0.98530  0.000456  0.000187  0.028591     2.431
   1.06254  0.01171 -0.01530 -1.00935  0.000500  0.000208  0.027235     2.410
   1.06576  0.01450 -0.01689 -1.03012  0.000552  0.000228  0.024855     2.422
   1.06931  0.01766 -0.01852 -1.04718  0.000608  0.000250  0.022617     2.436
   1.07328  0.02125 -0.02021 -1.06159  0.000667  0.000273  0.020683     2.446
   1.07773  0.02534 -0.02197 -1.07976  0.000703  0.000292  0.020732     2.410
   1.08275  0.03002 -0.02380 -1.09630  0.000760  0.000314  0.019209     2.423
   1.08845  0.03539 -0.02569 -1.11158  0.000819  0.000337  0.017940     2.430
   1.09493  0.04158 -0.02763 -1.12331  0.000897  0.000365  0.016089     2.457
   1.10237  0.04875 -0.02960 -1.13248  0.000981  0.000396  0.014527     2.477
   1.11095  0.05710 -0.03158 -1.13510  0.001107  0.000436  0.012063     2.539
   1.12083  0.06678 -0.03358 -1.13539  0.001228  0.000479  0.010573     2.565
   1.13204  0.07781 -0.03556 -1.13525  0.001344  0.000523  0.009591     2.570
   1.14448  0.09010 -0.03747 -1.13378  0.001475  0.000570  0.008562     2.587
   1.15809  0.10359 -0.03926 -1.13040  0.001624  0.000621  0.007497     2.616
   1.17266  0.11806 -0.04096 -1.12827  0.001741  0.000668  0.007060     2.606
   1.18781  0.13314 -0.04249 -1.12753  0.001841  0.000711  0.006819     2.587
   1.20335  0.14862 -0.04385 -1.12629  0.001959  0.000756  0.006371     2.592
   1.21923  0.16445 -0.04503 -1.12478  0.002077  0.000799  0.005952     2.599
   1.23540  0.18059 -0.04604 -1.12289  0.002198  0.000842  0.005549     2.609
   1.25175  0.19691 -0.04691 -1.12153  0.002300  0.000882  0.005312     2.607
   1.26813  0.21328 -0.04763 -1.12059  0.002392  0.000920  0.005141     2.600
   1.28457  0.22971 -0.04819 -1.11909  0.002501  0.000959  0.004864     2.609
   1.30115  0.24629 -0.04860 -1.11707  0.002619  0.000998  0.004555     2.624
   1.31783  0.26296 -0.04890 -1.11517  0.002726  0.001036  0.004329     2.632
   1.33448  0.27961 -0.04908 -1.11373  0.002815  0.001071  0.004202     2.629
   1.35110  0.29624 -0.04912 -1.11183  0.002921  0.001107  0.003998     2.639
   1.36778  0.31291 -0.04903 -1.10941  0.003042  0.001144  0.003746     2.658
   1.38450  0.32963 -0.04882 -1.10688  0.003160  0.001182  0.003528     2.674
   1.40120  0.34633 -0.04849 -1.10403  0.003287  0.001219  0.003299     2.695
   1.41786  0.36298 -0.04803 -1.10076  0.003427  0.001259  0.003047     2.723
   1.43449  0.37961 -0.04745 -1.09684  0.003595  0.001300  0.002746     2.765
   1.45114  0.39623 -0.04673 -1.09232  0.003790  0.001344  0.002414     2.819
   1.46777  0.41285 -0.04588 -1.08717  0.004023  0.001391  0.002047     2.892
   1.48439  0.42943 -0.04489 -1.08153  0.004301  0.001441  0.001656     2.985
   1.50097  0.44597 -0.04378 -1.07538  0.004654  0.001493  0.001220     3.117
   1.51751  0.46247 -0.04253 -1.06916  0.005083  0.001546  0.000788     3.288
   1.53401  0.47892 -0.04112 -1.06317  0.005637  0.001598  0.000357     3.528
   1.55050  0.49532 -0.03957 -1.05792  0.006319  0.001645 -0.000008     3.842
   1.56702  0.51176 -0.03785 -1.05351  0.007157  0.001686 -0.000265     4.246
   1.58368  0.52831 -0.03597 -1.04976  0.008147  0.001722 -0.000391     4.730
   1.60055  0.54506 -0.03395 -1.04678  0.009265  0.001754 -0.000417     5.282
   1.61761  0.56199 -0.03181 -1.04447  0.010470  0.001780 -0.000405     5.881
   1.63483  0.57906 -0.02959 -1.04268  0.011739  0.001802 -0.000384     6.513
   1.65218  0.59626 -0.02732 -1.04128  0.013040  0.001821 -0.000367     7.162
   1.66962  0.61355 -0.02500 -1.04016  0.014350  0.001837 -0.000356     7.813
   1.68712  0.63090 -0.02268 -1.03922  0.015633  0.001851 -0.000347     8.448
   1.70462  0.64824 -0.02037 -1.03842  0.016871  0.001863 -0.000340     9.055
   1.72205  0.66552 -0.01809 -1.03770  0.018046  0.001875 -0.000334     9.624
   1.73939  0.68272 -0.01585 -1.03704  0.019145  0.001887 -0.000329    10.147
   1.75663  0.69982 -0.01367 -1.03641  0.020139  0.001898 -0.000325    10.609
   1.77378  0.71684 -0.01156 -1.03578  0.021016  0.001911 -0.000322    11.000
   1.79085  0.73379 -0.00953 -1.03514  0.021759  0.001924 -0.000318    11.311
   1.80784  0.75067 -0.00760 -1.03447  0.022353  0.001938 -0.000315    11.534
   1.82474  0.76746 -0.00576 -1.03375  0.022779  0.001954 -0.000312    11.658
   1.84154  0.78418 -0.00404 -1.03297  0.023012  0.001972 -0.000309    11.671
   1.85823  0.80079 -0.00245 -1.03211  0.023022  0.001992 -0.000306    11.558
   1.87481  0.81731 -0.00100 -1.03113  0.022768  0.002015 -0.000303    11.300
   1.89126  0.83371  0.00030 -1.02999  0.022177  0.002042 -0.000300    10.861
   1.90759  0.85000  0.00143 -1.00397  0.021522  0.002725 -0.000222     7.898
   1.92381  0.86619  0.00238 -0.97472  0.020562  0.003538 -0.000191     5.811
   1.93987  0.88223  0.00314 -0.94650  0.019367  0.004361 -0.000118     4.441
   1.95573  0.89808  0.00370 -0.92150  0.018019  0.005118  0.000100     3.521
   1.97131  0.91366  0.00404 -0.90357  0.016583  0.005673  0.000399     2.923
   1.98653  0.92887  0.00415 -0.89189  0.015137  0.006037  0.000729     2.507
   2.00124  0.94358  0.00401 -0.88602  0.013735  0.006221  0.001094     2.208
   2.01526  0.95760  0.00361 -0.88546  0.012407  0.006249  0.001579     1.985
   2.02837  0.97069  0.00296 -0.88990  0.011152  0.006143  0.002122     1.815
   2.04040  0.98268  0.00205 -0.89936  0.009954  0.005922  0.002730     1.681
   2.05125  0.99348  0.00090 -0.91439  0.008788  0.005596  0.003436     1.570
   2.05783  1.00000  0.00000 -0.90751  0.009016  0.005762  0.003383     1.565
   2.05783  1.00010 -0.00002  0.90751  0.050008  0.018243  0.000000     2.741
   2.06446  1.00660 -0.00134  0.90792  0.045789  0.018205  0.000000     2.515
   2.07221  1.01423 -0.00265  0.90690  0.043509  0.018296  0.000000     2.378
   2.08127  1.02318 -0.00404  0.90618  0.041242  0.018358  0.000000     2.246
   2.09186  1.03366 -0.00553  0.90596  0.038931  0.018377  0.000000     2.118
   2.10423  1.04593 -0.00715  0.90653  0.036535  0.018330  0.000000     1.993
   2.11869  1.06029 -0.00891  0.90817  0.034068  0.018200  0.000000     1.872
   2.13560  1.07708 -0.01081  0.91109  0.031571  0.017978  0.000000     1.756
   2.15535  1.09673 -0.01288  0.91542  0.029107  0.017665  0.000000     1.648
   2.17845  1.11971 -0.01513  0.92111  0.026749  0.017275  0.000000     1.548
   2.20544  1.14660 -0.01756  0.92793  0.024564  0.016834  0.000000     1.459
   2.23698  1.17803 -0.02018  0.93549  0.022604  0.016374  0.000000     1.381
   2.27386  1.21480 -0.02301  0.94333  0.020893  0.015923  0.000000     1.312
   2.31695  1.25778 -0.02604  0.95102  0.019435  0.015503  0.000000     1.254
   2.36732  1.30805 -0.02929  0.95826  0.018212  0.015128  0.000000     1.204
   2.42619  1.36682 -0.03274  0.96486  0.017200  0.014801  0.000000     1.162
   2.49501  1.43554 -0.03641  0.97074  0.016372  0.014521  0.000000     1.127
   2.57543  1.51587 -0.04027  0.97588  0.015703  0.014284  0.000000     1.099
   2.66944  1.60979 -0.04431  0.98031  0.015167  0.014085  0.000000     1.077
   2.77931  1.71958 -0.04852  0.98407  0.014744  0.013920  0.000000     1.059
   2.90773  1.84792 -0.05288  0.98722  0.014412  0.013784  0.000000     1.046
   3.05782  1.99795 -0.05734  0.99047  0.014126  0.013646  0.000000     1.035
