#    s        x        y     Ue/Vinf    Dstar     Theta      Cf       H
   0.00000  1.00000  0.00000  0.91623  0.037302  0.014303  0.000412     2.608
   0.00668  0.99360  0.00192  0.92067  0.035149  0.013990  0.000499     2.512
   0.01807  0.98272  0.00530  0.92783  0.032447  0.013511  0.000624     2.401
   0.03106  0.97032  0.00914  0.93722  0.029556  0.012928  0.000789     2.286
   0.04516  0.95680  0.01317  0.94843  0.026783  0.012287  0.000984     2.180
   0.06006  0.94246  0.01720  0.96086  0.024294  0.011634  0.001198     2.088
   0.07565  0.92739  0.02118  0.97404  0.022132  0.010999  0.001421     2.012
   0.09186  0.91167  0.02516  0.98781  0.020245  0.010389  0.001650     1.949
   0.10852  0.89549  0.02915  1.00223  0.018562  0.009801  0.001891     1.894
   0.12544  0.87905  0.03313  1.01716  0.017063  0.009240  0.002140     1.847
   0.14250  0.86245  0.03708  1.03241  0.015733  0.008711  0.002395     1.806
   0.15964  0.84577  0.04099  1.04790  0.014552  0.008214  0.002653     1.772
   0.17681  0.82904  0.04484  1.06354  0.013502  0.007748  0.002912     1.743
   0.19398  0.81229  0.04864  1.07926  0.012565  0.007313  0.003169     1.718
   0.21115  0.79553  0.05238  1.09497  0.011733  0.006909  0.003421     1.698
   0.22833  0.77875  0.05606  1.11081  0.010981  0.006528  0.003668     1.682
   0.24546  0.76200  0.05967  1.12689  0.010295  0.006167  0.003914     1.669
   0.26249  0.74535  0.06319  1.14291  0.009681  0.005830  0.004145     1.660
   0.27941  0.72877  0.06660  1.15859  0.009145  0.005520  0.004349     1.657
   0.29629  0.71222  0.06990  1.17387  0.008683  0.005235  0.004513     1.658
   0.31313  0.69568  0.07308  1.18874  0.008288  0.004972  0.004629     1.667
   0.32994  0.67915  0.07616  1.20322  0.007957  0.004729  0.004684     1.683
   0.34670  0.66266  0.07911  1.21741  0.007689  0.004503  0.004664     1.707
   0.36339  0.64620  0.08193  1.23126  0.007488  0.004292  0.004547     1.745
   0.38005  0.62976  0.08462  1.24464  0.007374  0.004097  0.004299     1.800
   0.39672  0.61329  0.08718  1.25811  0.007351  0.003910  0.003902     1.880
   0.41338  0.59681  0.08962  1.27261  0.007422  0.003719  0.003350     1.996
   0.42997  0.58038  0.09191  1.28916  0.007602  0.003513  0.002877     2.164
   0.44649  0.56400  0.09406  1.30925  0.007923  0.003275  0.002209     2.419
   0.46301  0.54760  0.09605  1.33584  0.008384  0.002977  0.001342     2.816
   0.47954  0.53117  0.09790  1.37150  0.008936  0.002598  0.000388     3.440
   0.49603  0.51477  0.09961  1.42125  0.009469  0.002100 -0.000316     4.509
   0.51242  0.49845  0.10115  1.47573  0.009831  0.001595 -0.000470     6.164
   0.52875  0.48218  0.10252  1.48395  0.009965  0.001525 -0.000643     6.534
   0.54509  0.46588  0.10371  1.48698  0.009865  0.001501 -0.000654     6.572
   0.56144  0.44957  0.10475  1.48993  0.009585  0.001478 -0.000668     6.484
   0.57774  0.43329  0.10561  1.49293  0.009178  0.001456 -0.000687     6.303
   0.59394  0.41711  0.10630  1.49609  0.008696  0.001434 -0.000710     6.066
   0.61007  0.40098  0.10679  1.49954  0.008175  0.001410 -0.000736     5.797
   0.62617  0.38489  0.10708  1.50338  0.007631  0.001386 -0.000759     5.508
   0.64227  0.36879  0.10718  1.50773  0.007079  0.001359 -0.000773     5.209
   0.65836  0.35270  0.10708  1.51270  0.006518  0.001331 -0.000765     4.899
   0.67432  0.33674  0.10680  1.51838  0.005957  0.001300 -0.000699     4.582
   0.69010  0.32097  0.10629  1.52482  0.005437  0.001267 -0.000548     4.291
   0.70583  0.30526  0.10554  1.53199  0.004997  0.001233 -0.000327     4.054
   0.72167  0.28945  0.10454  1.53996  0.004605  0.001196 -0.000033     3.851
   0.73747  0.27369  0.10335  1.54885  0.004204  0.001156  0.000427     3.636
   0.75302  0.25820  0.10195  1.55855  0.003835  0.001115  0.001027     3.441
   0.76841  0.24291  0.10027  1.56847  0.003563  0.001073  0.001534     3.320
   0.78386  0.22758  0.09831  1.57848  0.003354  0.001033  0.001926     3.248
   0.79934  0.21226  0.09610  1.58903  0.003148  0.000991  0.002387     3.177
   0.81467  0.19713  0.09366  1.59996  0.002949  0.000949  0.002912     3.109
   0.82983  0.18221  0.09095  1.61071  0.002788  0.000908  0.003311     3.071
   0.84493  0.16741  0.08797  1.62154  0.002655  0.000868  0.003570     3.059
   0.85995  0.15275  0.08473  1.63335  0.002512  0.000826  0.003928     3.040
   0.87475  0.13836  0.08125  1.64610  0.002358  0.000783  0.004423     3.010
   0.88915  0.12444  0.07757  1.65969  0.002194  0.000740  0.005134     2.967
   0.90314  0.11101  0.07364  1.67296  0.002064  0.000698  0.005570     2.959
   0.91683  0.09797  0.06946  1.68671  0.001964  0.000657  0.005614     2.991
   0.92993  0.08560  0.06517  1.70396  0.001794  0.000611  0.006733     2.938
   0.94206  0.07425  0.06087  1.72131  0.001625  0.000566  0.008264     2.872
   0.95332  0.06387  0.05649  1.73576  0.001538  0.000528  0.008290     2.914
   0.96371  0.05444  0.05215  1.75278  0.001449  0.000489  0.008266     2.962
   0.97301  0.04611  0.04801  1.77367  0.001311  0.000448  0.009797     2.924
   0.98119  0.03891  0.04412  1.79465  0.001171  0.000410  0.012201     2.858
   0.98837  0.03273  0.04046  1.81387  0.001046  0.000374  0.015045     2.794
   0.99470  0.02743  0.03701  1.83065  0.000939  0.000343  0.018173     2.739
   1.00030  0.02288  0.03375  1.84477  0.000846  0.000315  0.021650     2.689
   1.00527  0.01898  0.03066  1.85581  0.000765  0.000289  0.025322     2.647
   1.00973  0.01561  0.02774  1.86401  0.000690  0.000266  0.029849     2.598
   1.01375  0.01272  0.02495  1.86771  0.000625  0.000245  0.034782     2.552
   1.01739  0.01024  0.02228  1.86616  0.000568  0.000226  0.039950     2.512
   1.02073  0.00811  0.01971  1.85887  0.000517  0.000209  0.045585     2.471
   1.02380  0.00630  0.01724  1.84457  0.000473  0.000195  0.051625     2.431
   1.02664  0.00476  0.01485  1.82181  0.000434  0.000182  0.057828     2.390
   1.02926  0.00350  0.01255  1.78935  0.000404  0.000171  0.062772     2.361
   1.03171  0.00246  0.01033  1.74893  0.000381  0.000163  0.066144     2.344
   1.03400  0.00163  0.00819  1.70345  0.000366  0.000155  0.066014     2.359
   1.03618  0.00098  0.00612  1.66071  0.000354  0.000147  0.063840     2.403
   1.03826  0.00048  0.00410  1.62577  0.000331  0.000136  0.064515     2.437
   1.04024  0.00015  0.00214  1.59130  0.000292  0.000121  0.073863     2.406
   1.04215  0.00001  0.00024  1.53672  0.000255  0.000108  0.085376     2.362
   1.04400  0.00012 -0.00161  1.44059  0.000220  0.000097  0.101100     2.268
   1.04587  0.00052 -0.00343  1.28195  0.000209  0.000094  0.098695     2.223
   1.04780  0.00123 -0.00524  1.09006  0.000212  0.000096  0.083975     2.207
   1.04986  0.00223 -0.00703  0.89226  0.000222  0.000101  0.065637     2.208
   1.05205  0.00354 -0.00879  0.70031  0.000235  0.000107  0.049083     2.200
   1.05438  0.00514 -0.01048  0.51996  0.000256  0.000116  0.033437     2.198
   1.05689  0.00705 -0.01212  0.36086  0.000285  0.000129  0.020726     2.203
   1.05960  0.00924 -0.01371  0.22554  0.000317  0.000143  0.011515     2.217
   1.06254  0.01171 -0.01530  0.10819  0.000345  0.000155  0.005040     2.225
   1.06576  0.01450 -0.01689  0.00823  0.000413  0.000185  0.000319     2.230
   1.06931  0.01766 -0.01852 -0.07951  0.000413  0.000185  0.003079     2.230
   1.07328  0.02125 -0.02021 -0.16101  0.000470  0.000208  0.005326     2.262
   1.07773  0.02534 -0.02197 -0.23662  0.000499  0.000223  0.007559     2.234
   1.08275  0.03002 -0.02380 -0.30779  0.000548  0.000241  0.008657     2.271
   1.08845  0.03539 -0.02569 -0.37301  0.000593  0.000262  0.009755     2.264
   1.09493  0.04158 -0.02763 -0.43490  0.000646  0.000284  0.010319     2.277
   1.10237  0.04875 -0.02960 -0.49157  0.000708  0.000309  0.010515     2.290
   1.11095  0.05710 -0.03158 -0.54103  0.000790  0.000341  0.010143     2.314
   1.12083  0.06678 -0.03358 -0.58644  0.000865  0.000374  0.010060     2.311
   1.13204  0.07781 -0.03556 -0.62800  0.000949  0.000409  0.009712     2.323
   1.14448  0.09010 -0.03747 -0.66430  0.001042  0.000446  0.009252     2.335
   1.15809  0.10359 -0.03926 -0.69512  0.001143  0.000486  0.008692     2.350
   1.17266  0.11806 -0.04096 -0.72375  0.001224  0.000523  0.008531     2.341
   1.18781  0.13314 -0.04249 -0.74922  0.001311  0.000558  0.008192     2.348
   1.20335  0.14862 -0.04385 -0.77158  0.001394  0.000593  0.007894     2.353
   1.21923  0.16445 -0.04503 -0.79062  0.001485  0.000628  0.007513     2.364
   1.23540  0.18059 -0.04604 -0.80682  0.001576  0.000664  0.007149     2.375
   1.25175  0.19691 -0.04691 -0.82207  0.001647  0.000695  0.007003     2.370
   1.26813  0.21328 -0.04763 -0.83632  0.001715  0.000725  0.006863     2.367
   1.28457  0.22971 -0.04819 -0.84834  0.001799  0.000756  0.006557     2.379
   1.30115  0.24629 -0.04860 -0.85891  0.001880  0.000787  0.006298     2.388
   1.31783  0.26296 -0.04890 -0.86897  0.001947  0.000816  0.006159     2.387
   1.33448  0.27961 -0.04908 -0.87861  0.002008  0.000842  0.006059     2.383
   1.35110  0.29624 -0.04912 -0.88716  0.002077  0.000870  0.005883     2.388
   1.36778  0.31291 -0.04903 -0.89454  0.002154  0.000898  0.005664     2.398
   1.38450  0.32963 -0.04882 -0.90151  0.002221  0.000925  0.005520     2.401
   1.40120  0.34633 -0.04849 -0.90809  0.002284  0.000951  0.005402     2.402
   1.41786  0.36298 -0.04803 -0.91392  0.002353  0.000977  0.005249     2.408
   1.43449  0.37961 -0.04745 -0.91894  0.002427  0.001004  0.005070     2.417
   1.45114  0.39623 -0.04673 -0.92322  0.002505  0.001032  0.004880     2.428
   1.46777  0.41285 -0.04588 -0.92686  0.002586  0.001060  0.004694     2.439
   1.48439  0.42943 -0.04489 -0.92974  0.002673  0.001090  0.004491     2.453
   1.50097  0.44597 -0.04378 -0.93192  0.002765  0.001120  0.004282     2.468
   1.51751  0.46247 -0.04253 -0.93323  0.002869  0.001153  0.004043     2.489
   1.53401  0.47892 -0.04112 -0.93341  0.002994  0.001188  0.003750     2.519
   1.55050  0.49532 -0.03957 -0.93248  0.003141  0.001228  0.003422     2.558
   1.56702  0.51176 -0.03785 -0.93007  0.003332  0.001273  0.003012     2.616
   1.58368  0.52831 -0.03597 -0.92646  0.003560  0.001324  0.002575     2.689
   1.60055  0.54506 -0.03395 -0.92202  0.003820  0.001378  0.002151     2.772
   1.61761  0.56199 -0.03181 -0.91721  0.004094  0.001433  0.001781     2.857
   1.63483  0.57906 -0.02959 -0.91225  0.004378  0.001488  0.001467     2.941
   1.65218  0.59626 -0.02732 -0.90727  0.004668  0.001544  0.001201     3.024
   1.66962  0.61355 -0.02500 -0.90238  0.004964  0.001598  0.000978     3.106
   1.68712  0.63090 -0.02268 -0.89769  0.005251  0.001651  0.000802     3.180
   1.70462  0.64824 -0.02037 -0.89319  0.005535  0.001703  0.000656     3.250
   1.72205  0.66552 -0.01809 -0.88893  0.005810  0.001753  0.000539     3.314
   1.73939  0.68272 -0.01585 -0.88486  0.006084  0.001802  0.000439     3.376
   1.75663  0.69982 -0.01367 -0.88104  0.006340  0.001849  0.000363     3.428
   1.77378  0.71684 -0.01156 -0.87744  0.006576  0.001895  0.000306     3.470
   1.79085  0.73379 -0.00953 -0.87404  0.006788  0.001939  0.000267     3.501
   1.80784  0.75067 -0.00760 -0.87083  0.006975  0.001982  0.000242     3.520
   1.82474  0.76746 -0.00576 -0.86780  0.007135  0.002023  0.000229     3.527
   1.84154  0.78418 -0.00404 -0.86495  0.007257  0.002062  0.000232     3.519
   1.85823  0.80079 -0.00245 -0.86229  0.007345  0.002100  0.000247     3.497
   1.87481  0.81731 -0.00100 -0.85984  0.007385  0.002136  0.000279     3.457
   1.89126  0.83371  0.00030 -0.85763  0.007373  0.002170  0.000331     3.398
   1.90759  0.85000  0.00143 -0.85571  0.007308  0.002200  0.000405     3.322
   1.92381  0.86619  0.00238 -0.85419  0.007185  0.002226  0.000506     3.228
   1.93987  0.88223  0.00314 -0.85315  0.007013  0.002246  0.000636     3.122
   1.95573  0.89808  0.00370 -0.85279  0.006787  0.002259  0.000802     3.005
   1.97131  0.91366  0.00404 -0.85330  0.006511  0.002262  0.001011     2.878
   1.98653  0.92887  0.00415 -0.85510  0.006171  0.002251  0.001284     2.742
   2.00124  0.94358  0.00401 -0.85860  0.005777  0.002223  0.001636     2.599
   2.01526  0.95760  0.00361 -0.86434  0.005334  0.002174  0.002091     2.453
   2.02837  0.97069  0.00296 -0.87336  0.004830  0.002098  0.002708     2.302
   2.04040  0.98268  0.00205 -0.88727  0.004260  0.001986  0.003591     2.145
   2.05125  0.99348  0.00090 -0.91002  0.003589  0.001820  0.005024     1.972
   2.05783  1.00000  0.00000 -0.91623  0.003504  0.001791  0.005243     1.956
   2.05783  1.00010 -0.00002  0.91623  0.040807  0.016094  0.000000     2.535
   2.06446  1.00660 -0.00131  0.91849  0.038372  0.015918  0.000000     2.411
   2.07221  1.01425 -0.00255  0.91915  0.037051  0.015869  0.000000     2.335
   2.08127  1.02322 -0.00381  0.91985  0.035737  0.015816  0.000000     2.260
   2.09186  1.03373 -0.00512  0.92071  0.034386  0.015754  0.000000     2.183
   2.10423  1.04603 -0.00647  0.92186  0.032962  0.015673  0.000000     2.103
   2.11869  1.06042 -0.00786  0.92342  0.031459  0.015565  0.000000     2.021
   2.13560  1.07726 -0.00929  0.92550  0.029886  0.015427  0.000000     1.937
   2.15535  1.09697 -0.01072  0.92816  0.028261  0.015255  0.000000     1.853
   2.17845  1.12002 -0.01214  0.93147  0.026615  0.015050  0.000000     1.768
   2.20544  1.14697 -0.01350  0.93539  0.024982  0.014816  0.000000     1.686
   2.23698  1.17850 -0.01475  0.93988  0.023399  0.014560  0.000000     1.607
   2.27386  1.21535 -0.01582  0.94479  0.021899  0.014292  0.000000     1.532
   2.31695  1.25844 -0.01662  0.94994  0.020507  0.014022  0.000000     1.462
   2.36732  1.30881 -0.01705  0.95517  0.019241  0.013761  0.000000     1.398
   2.42619  1.36768 -0.01696  0.96031  0.018107  0.013515  0.000000     1.340
   2.49501  1.43649 -0.01618  0.96522  0.017105  0.013288  0.000000     1.287
   2.57543  1.51690 -0.01449  0.96981  0.016231  0.013084  0.000000     1.241
   2.66944  1.61086 -0.01163  0.97403  0.015475  0.012902  0.000000     1.199
   2.77931  1.72064 -0.00730  0.97784  0.014830  0.012743  0.000000     1.164
   2.90773  1.84891 -0.00111  0.98121  0.014287  0.012606  0.000000     1.133
   3.05782  1.99877  0.00738  0.98537  0.013779  0.012441  0.000000     1.108
