#    s        x        y     Ue/Vinf    Dstar     Theta      Cf       H
   0.00000  1.00000  0.00000  0.91146  0.038912  0.014892  0.000399     2.613
   0.00668  0.99360  0.00192  0.91639  0.036590  0.014527  0.000483     2.519
   0.01807  0.98272  0.00530  0.92388  0.033951  0.014005  0.000588     2.424
   0.03106  0.97032  0.00914  0.93331  0.031178  0.013391  0.000719     2.328
   0.04516  0.95680  0.01317  0.94421  0.028556  0.012735  0.000866     2.242
   0.06006  0.94246  0.01720  0.95600  0.026235  0.012080  0.001016     2.172
   0.07565  0.92739  0.02118  0.96826  0.024247  0.011450  0.001160     2.118
   0.09186  0.91167  0.02516  0.98087  0.022536  0.010849  0.001293     2.077
   0.10852  0.89549  0.02915  0.99388  0.021030  0.010272  0.001417     2.047
   0.12544  0.87905  0.03313  1.00718  0.019708  0.009723  0.001527     2.027
   0.14250  0.86245  0.03708  1.02065  0.018559  0.009205  0.001620     2.016
   0.15964  0.84577  0.04099  1.03423  0.017567  0.008716  0.001690     2.015
   0.17681  0.82904  0.04484  1.04790  0.016720  0.008255  0.001731     2.025
   0.19398  0.81229  0.04864  1.06168  0.016008  0.007818  0.001737     2.048
   0.21115  0.79553  0.05238  1.07561  0.015429  0.007402  0.001701     2.084
   0.22833  0.77875  0.05606  1.08995  0.014970  0.006998  0.001617     2.139
   0.24546  0.76200  0.05967  1.10497  0.014625  0.006598  0.001484     2.216
   0.26249  0.74535  0.06319  1.12091  0.014411  0.006198  0.001293     2.325
   0.27941  0.72877  0.06660  1.13829  0.014346  0.005785  0.001043     2.480
   0.29629  0.71222  0.06990  1.15814  0.014429  0.005338  0.000781     2.703
   0.31313  0.69568  0.07308  1.18186  0.014650  0.004833  0.000493     3.031
   0.32994  0.67915  0.07616  1.21119  0.014978  0.004244  0.000152     3.529
   0.34670  0.66266  0.07911  1.24875  0.015345  0.003541 -0.000170     4.333
   0.36339  0.64620  0.08193  1.29155  0.015674  0.002802 -0.000322     5.593
   0.38005  0.62976  0.08462  1.33755  0.015868  0.002074 -0.000393     7.651
   0.39672  0.61329  0.08718  1.36885  0.015882  0.001623 -0.000507     9.787
   0.41338  0.59681  0.08962  1.37037  0.015736  0.001604 -0.000514     9.811
   0.42997  0.58038  0.09191  1.37172  0.015338  0.001588 -0.000520     9.660
   0.44649  0.56400  0.09406  1.37300  0.014782  0.001573 -0.000528     9.397
   0.46301  0.54760  0.09605  1.37429  0.014119  0.001559 -0.000536     9.058
   0.47954  0.53117  0.09790  1.37563  0.013369  0.001545 -0.000546     8.654
   0.49603  0.51477  0.09961  1.37705  0.012538  0.001531 -0.000558     8.191
   0.51242  0.49845  0.10115  1.37863  0.011679  0.001516 -0.000572     7.705
   0.52875  0.48218  0.10252  1.38044  0.010817  0.001500 -0.000589     7.214
   0.54509  0.46588  0.10371  1.38258  0.009962  0.001481 -0.000611     6.725
   0.56144  0.44957  0.10475  1.38511  0.009110  0.001461 -0.000638     6.234
   0.57774  0.43329  0.10561  1.38814  0.008274  0.001439 -0.000670     5.751
   0.59394  0.41711  0.10630  1.39182  0.007483  0.001413 -0.000688     5.295
   0.61007  0.40098  0.10679  1.39628  0.006750  0.001384 -0.000675     4.876
   0.62617  0.38489  0.10708  1.40162  0.006081  0.001352 -0.000587     4.498
   0.64227  0.36879  0.10718  1.40785  0.005480  0.001317 -0.000386     4.162
   0.65836  0.35270  0.10708  1.41491  0.004931  0.001279 -0.000037     3.857
   0.67432  0.33674  0.10680  1.42296  0.004434  0.001237  0.000481     3.584
   0.69010  0.32097  0.10629  1.43187  0.004011  0.001192  0.001115     3.364
   0.70583  0.30526  0.10554  1.44100  0.003694  0.001148  0.001697     3.219
   0.72167  0.28945  0.10454  1.45022  0.003432  0.001103  0.002258     3.111
   0.73747  0.27369  0.10335  1.45996  0.003163  0.001057  0.003008     2.992
   0.75302  0.25820  0.10195  1.46953  0.002916  0.001011  0.003868     2.883
   0.76841  0.24291  0.10027  1.47741  0.002743  0.000971  0.004478     2.826
   0.78386  0.22758  0.09831  1.48409  0.002616  0.000934  0.004870     2.802
   0.79934  0.21226  0.09610  1.49118  0.002475  0.000895  0.005426     2.766
   0.81467  0.19713  0.09366  1.49799  0.002336  0.000856  0.006049     2.729
   0.82983  0.18221  0.09095  1.50372  0.002224  0.000820  0.006516     2.712
   0.84493  0.16741  0.08797  1.50887  0.002129  0.000785  0.006826     2.712
   0.85995  0.15275  0.08473  1.51478  0.002020  0.000748  0.007306     2.703
   0.87475  0.13836  0.08125  1.52088  0.001909  0.000709  0.007872     2.691
   0.88915  0.12444  0.07757  1.52769  0.001776  0.000669  0.008880     2.655
   0.90314  0.11101  0.07364  1.53241  0.001676  0.000632  0.009490     2.651
   0.91683  0.09797  0.06946  1.53640  0.001604  0.000597  0.009520     2.687
   0.92993  0.08560  0.06517  1.54457  0.001468  0.000555  0.010983     2.646
   0.94206  0.07425  0.06087  1.55125  0.001327  0.000514  0.013094     2.585
   0.95332  0.06387  0.05649  1.55183  0.001261  0.000482  0.013306     2.616
   0.96371  0.05444  0.05215  1.55489  0.001195  0.000449  0.013322     2.662
   0.97301  0.04611  0.04801  1.56267  0.001089  0.000412  0.015015     2.644
   0.98119  0.03891  0.04412  1.56959  0.000983  0.000377  0.017431     2.608
   0.98837  0.03273  0.04046  1.57357  0.000890  0.000345  0.020007     2.576
   0.99470  0.02743  0.03701  1.57457  0.000807  0.000317  0.022892     2.544
   1.00030  0.02288  0.03375  1.57191  0.000736  0.000292  0.025661     2.521
   1.00527  0.01898  0.03066  1.56638  0.000670  0.000269  0.028950     2.493
   1.00973  0.01561  0.02774  1.55668  0.000610  0.000248  0.032678     2.462
   1.01375  0.01272  0.02495  1.54155  0.000558  0.000229  0.036395     2.434
   1.01739  0.01024  0.02228  1.52092  0.000517  0.000213  0.039192     2.424
   1.02073  0.00811  0.01971  1.49656  0.000469  0.000197  0.044405     2.380
   1.02380  0.00630  0.01724  1.46197  0.000438  0.000185  0.046847     2.372
   1.02664  0.00476  0.01485  1.42261  0.000402  0.000172  0.051387     2.335
   1.02926  0.00350  0.01255  1.37227  0.000376  0.000163  0.054277     2.311
   1.03171  0.00246  0.01033  1.31319  0.000354  0.000155  0.056451     2.284
   1.03400  0.00163  0.00819  1.24772  0.000345  0.000150  0.054239     2.302
   1.03618  0.00098  0.00612  1.18491  0.000329  0.000143  0.053678     2.307
   1.03826  0.00048  0.00410  1.12287  0.000315  0.000134  0.050989     2.350
   1.04024  0.00015  0.00214  1.06158  0.000282  0.000121  0.054848     2.331
   1.04215  0.00001  0.00024  0.98051  0.000251  0.000109  0.058167     2.309
   1.04400  0.00012 -0.00161  0.86434  0.000223  0.000099  0.061057     2.247
   1.04587  0.00052 -0.00343  0.70525  0.000217  0.000098  0.052404     2.219
   1.04780  0.00123 -0.00524  0.53124  0.000225  0.000102  0.038328     2.214
   1.04986  0.00223 -0.00703  0.36259  0.000235  0.000105  0.024660     2.232
   1.05205  0.00354 -0.00879  0.19798  0.000247  0.000112  0.013085     2.208
   1.05438  0.00514 -0.01048  0.05544  0.000296  0.000133  0.002989     2.230
   1.05689  0.00705 -0.01212 -0.06491  0.000296  0.000133  0.003506     2.230
   1.05960  0.00924 -0.01371 -0.16797  0.000352  0.000155  0.007412     2.263
   1.06254  0.01171 -0.01530 -0.25231  0.000386  0.000172  0.010334     2.242
   1.06576  0.01450 -0.01689 -0.32847  0.000422  0.000186  0.012054     2.265
   1.06931  0.01766 -0.01852 -0.39487  0.000465  0.000204  0.013044     2.275
   1.07328  0.02125 -0.02021 -0.45283  0.000514  0.000225  0.013329     2.290
   1.07773  0.02534 -0.02197 -0.51040  0.000543  0.000240  0.014522     2.268
   1.08275  0.03002 -0.02380 -0.56458  0.000592  0.000258  0.014367     2.295
   1.08845  0.03539 -0.02569 -0.61345  0.000644  0.000279  0.014230     2.304
   1.09493  0.04158 -0.02763 -0.66015  0.000695  0.000301  0.014165     2.306
   1.10237  0.04875 -0.02960 -0.70164  0.000767  0.000329  0.013319     2.332
   1.11095  0.05710 -0.03158 -0.73546  0.000859  0.000363  0.012100     2.363
   1.12083  0.06678 -0.03358 -0.76540  0.000946  0.000400  0.011383     2.366
   1.13204  0.07781 -0.03556 -0.79403  0.001029  0.000436  0.010897     2.363
   1.14448  0.09010 -0.03747 -0.81804  0.001135  0.000476  0.009952     2.386
   1.15809  0.10359 -0.03926 -0.83806  0.001243  0.000518  0.009200     2.398
   1.17266  0.11806 -0.04096 -0.85659  0.001335  0.000558  0.008793     2.394
   1.18781  0.13314 -0.04249 -0.87387  0.001421  0.000595  0.008464     2.390
   1.20335  0.14862 -0.04385 -0.88872  0.001514  0.000632  0.008010     2.398
   1.21923  0.16445 -0.04503 -0.90111  0.001612  0.000669  0.007544     2.409
   1.23540  0.18059 -0.04604 -0.91164  0.001707  0.000706  0.007142     2.418
   1.25175  0.19691 -0.04691 -0.92169  0.001785  0.000739  0.006934     2.414
   1.26813  0.21328 -0.04763 -0.93094  0.001861  0.000771  0.006722     2.413
   1.28457  0.22971 -0.04819 -0.93894  0.001944  0.000803  0.006450     2.420
   1.30115  0.24629 -0.04860 -0.94547  0.002036  0.000837  0.006120     2.433
   1.31783  0.26296 -0.04890 -0.95176  0.002111  0.000868  0.005937     2.433
   1.33448  0.27961 -0.04908 -0.95801  0.002176  0.000896  0.005828     2.428
   1.35110  0.29624 -0.04912 -0.96337  0.002251  0.000925  0.005635     2.433
   1.36778  0.31291 -0.04903 -0.96774  0.002336  0.000955  0.005395     2.444
   1.38450  0.32963 -0.04882 -0.97200  0.002407  0.000984  0.005244     2.447
   1.40120  0.34633 -0.04849 -0.97577  0.002481  0.001012  0.005082     2.452
   1.41786  0.36298 -0.04803 -0.97895  0.002559  0.001041  0.004906     2.459
   1.43449  0.37961 -0.04745 -0.98147  0.002644  0.001070  0.004706     2.470
   1.45114  0.39623 -0.04673 -0.98330  0.002735  0.001101  0.004491     2.484
   1.46777  0.41285 -0.04588 -0.98443  0.002834  0.001133  0.004259     2.502
   1.48439  0.42943 -0.04489 -0.98497  0.002937  0.001165  0.004031     2.520
   1.50097  0.44597 -0.04378 -0.98472  0.003054  0.001200  0.003772     2.545
   1.51751  0.46247 -0.04253 -0.98358  0.003189  0.001237  0.003481     2.577
   1.53401  0.47892 -0.04112 -0.98131  0.003356  0.001279  0.003129     2.624
   1.55050  0.49532 -0.03957 -0.97805  0.003553  0.001324  0.002747     2.683
   1.56702  0.51176 -0.03785 -0.97338  0.003816  0.001377  0.002274     2.772
   1.58368  0.52831 -0.03597 -0.96780  0.004139  0.001434  0.001782     2.887
   1.60055  0.54506 -0.03395 -0.96172  0.004520  0.001493  0.001309     3.027
   1.61761  0.56199 -0.03181 -0.95569  0.004940  0.001552  0.000903     3.182
   1.63483  0.57906 -0.02959 -0.94989  0.005404  0.001610  0.000558     3.357
   1.65218  0.59626 -0.02732 -0.94451  0.005900  0.001664  0.000282     3.545
   1.66962  0.61355 -0.02500 -0.93962  0.006423  0.001716  0.000072     3.744
   1.68712  0.63090 -0.02268 -0.93521  0.006962  0.001763 -0.000079     3.948
   1.70462  0.64824 -0.02037 -0.93121  0.007505  0.001808 -0.000181     4.150
   1.72205  0.66552 -0.01809 -0.92756  0.008050  0.001851 -0.000247     4.349
   1.73939  0.68272 -0.01585 -0.92422  0.008592  0.001892 -0.000285     4.542
   1.75663  0.69982 -0.01367 -0.92120  0.009113  0.001930 -0.000305     4.721
   1.77378  0.71684 -0.01156 -0.91843  0.009605  0.001967 -0.000313     4.883
   1.79085  0.73379 -0.00953 -0.91588  0.010058  0.002002 -0.000314     5.023
   1.80784  0.75067 -0.00760 -0.91350  0.010469  0.002036 -0.000312     5.141
   1.82474  0.76746 -0.00576 -0.91126  0.010827  0.002069 -0.000307     5.232
   1.84154  0.78418 -0.00404 -0.90913  0.011121  0.002102 -0.000302     5.292
   1.85823  0.80079 -0.00245 -0.90708  0.011346  0.002134 -0.000297     5.318
   1.87481  0.81731 -0.00100 -0.90508  0.011487  0.002165 -0.000292     5.305
   1.89126  0.83371  0.00030 -0.90311  0.011533  0.002197 -0.000287     5.249
   1.90759  0.85000  0.00143 -0.90114  0.011477  0.002229 -0.000281     5.149
   1.92381  0.86619  0.00238 -0.89916  0.011311  0.002261 -0.000272     5.003
   1.93987  0.88223  0.00314 -0.89718  0.011038  0.002293 -0.000258     4.813
   1.95573  0.89808  0.00370 -0.89519  0.010650  0.002325 -0.000230     4.580
   1.97131  0.91366  0.00404 -0.89323  0.010148  0.002356 -0.000177     4.307
   1.98653  0.92887  0.00415 -0.89133  0.009523  0.002386 -0.000074     3.992
   2.00124  0.94358  0.00401 -0.88985  0.008791  0.002409  0.000108     3.649
   2.01526  0.95760  0.00361 -0.88957  0.007976  0.002416  0.000404     3.302
   2.02837  0.97069  0.00296 -0.89170  0.007093  0.002391  0.000853     2.966
   2.04040  0.98268  0.00205 -0.89779  0.006162  0.002323  0.001507     2.653
   2.05125  0.99348  0.00090 -0.91008  0.005192  0.002197  0.002479     2.363
   2.05783  1.00000  0.00000 -0.91146  0.005152  0.002193  0.002533     2.350
   2.05783  1.00010 -0.00002  0.91146  0.044065  0.017084  0.000000     2.579
   2.06446  1.00660 -0.00132  0.91373  0.040921  0.016894  0.000000     2.422
   2.07221  1.01425 -0.00258  0.91428  0.039222  0.016850  0.000000     2.328
   2.08127  1.02321 -0.00389  0.91494  0.037547  0.016797  0.000000     2.235
   2.09186  1.03371 -0.00525  0.91586  0.035848  0.016727  0.000000     2.143
   2.10423  1.04600 -0.00669  0.91719  0.034085  0.016628  0.000000     2.050
   2.11869  1.06038 -0.00820  0.91908  0.032258  0.016491  0.000000     1.956
   2.13560  1.07721 -0.00979  0.92167  0.030382  0.016311  0.000000     1.863
   2.15535  1.09690 -0.01143  0.92503  0.028488  0.016086  0.000000     1.771
   2.17845  1.11993 -0.01311  0.92918  0.026615  0.015821  0.000000     1.682
   2.20544  1.14686 -0.01482  0.93405  0.024807  0.015522  0.000000     1.598
   2.23698  1.17836 -0.01652  0.93950  0.023104  0.015204  0.000000     1.520
   2.27386  1.21520 -0.01817  0.94532  0.021537  0.014881  0.000000     1.447
   2.31695  1.25827 -0.01970  0.95126  0.020125  0.014566  0.000000     1.382
   2.36732  1.30862 -0.02105  0.95711  0.018877  0.014270  0.000000     1.323
   2.42619  1.36748 -0.02211  0.96268  0.017787  0.013999  0.000000     1.271
   2.49501  1.43629 -0.02277  0.96786  0.016846  0.013758  0.000000     1.225
   2.57543  1.51672 -0.02288  0.97258  0.016043  0.013545  0.000000     1.184
   2.66944  1.61072 -0.02227  0.97681  0.015365  0.013360  0.000000     1.150
   2.77931  1.72058 -0.02071  0.98054  0.014799  0.013201  0.000000     1.121
   2.90773  1.84897 -0.01794  0.98378  0.014334  0.013066  0.000000     1.097
   3.05782  1.99900 -0.01364  0.98758  0.013909  0.012912  0.000000     1.077
