#    s        x        y     Ue/Vinf    Dstar     Theta      Cf       H
   0.00000  1.00000  0.00000  0.90911  0.042907  0.013235  0.000088     3.242
   0.00668  0.99360  0.00192  0.91251  0.040367  0.012981  0.000139     3.110
   0.01807  0.98272  0.00530  0.91858  0.037863  0.012551  0.000184     3.017
   0.03106  0.97032  0.00914  0.92624  0.035299  0.012042  0.000233     2.931
   0.04516  0.95680  0.01317  0.93524  0.032929  0.011483  0.000277     2.868
   0.06006  0.94246  0.01720  0.94532  0.030884  0.010899  0.000310     2.834
   0.07565  0.92739  0.02118  0.95637  0.029195  0.010301  0.000323     2.834
   0.09186  0.91167  0.02516  0.96845  0.027812  0.009690  0.000313     2.870
   0.10852  0.89549  0.02915  0.98174  0.026665  0.009061  0.000282     2.943
   0.12544  0.87905  0.03313  0.99641  0.025734  0.008411  0.000226     3.060
   0.14250  0.86245  0.03708  1.01283  0.025001  0.007731  0.000170     3.234
   0.15964  0.84577  0.04099  1.03153  0.024443  0.007007  0.000091     3.488
   0.17681  0.82904  0.04484  1.05393  0.024017  0.006202 -0.000009     3.872
   0.19398  0.81229  0.04864  1.07973  0.023690  0.005345 -0.000108     4.432
   0.21115  0.79553  0.05238  1.10777  0.023431  0.004489 -0.000172     5.220
   0.22833  0.77875  0.05606  1.13887  0.023162  0.003617 -0.000210     6.404
   0.24546  0.76200  0.05967  1.17510  0.022773  0.002693 -0.000269     8.455
   0.26249  0.74535  0.06319  1.21762  0.022138  0.001723 -0.000413    12.851
   0.27941  0.72877  0.06660  1.21840  0.021677  0.001709 -0.000417    12.684
   0.29629  0.71222  0.06990  1.21906  0.020959  0.001698 -0.000421    12.344
   0.31313  0.69568  0.07308  1.21966  0.020072  0.001689 -0.000425    11.887
   0.32994  0.67915  0.07616  1.22024  0.019072  0.001680 -0.000429    11.352
   0.34670  0.66266  0.07911  1.22083  0.017988  0.001672 -0.000434    10.759
   0.36339  0.64620  0.08193  1.22147  0.016855  0.001663 -0.000439    10.133
   0.38005  0.62976  0.08462  1.22220  0.015703  0.001654 -0.000446     9.493
   0.39672  0.61329  0.08718  1.22306  0.014544  0.001644 -0.000455     8.848
   0.41338  0.59681  0.08962  1.22408  0.013383  0.001632 -0.000465     8.200
   0.42997  0.58038  0.09191  1.22532  0.012233  0.001618 -0.000479     7.559
   0.44649  0.56400  0.09406  1.22687  0.011130  0.001602 -0.000496     6.947
   0.46301  0.54760  0.09605  1.22882  0.010083  0.001583 -0.000518     6.369
   0.47954  0.53117  0.09790  1.23127  0.009088  0.001561 -0.000545     5.823
   0.49603  0.51477  0.09961  1.23433  0.008145  0.001535 -0.000562     5.308
   0.51242  0.49845  0.10115  1.23814  0.007283  0.001504 -0.000546     4.841
   0.52875  0.48218  0.10252  1.24277  0.006521  0.001470 -0.000455     4.435
   0.54509  0.46588  0.10371  1.24819  0.005851  0.001433 -0.000255     4.084
   0.56144  0.44957  0.10475  1.25438  0.005258  0.001392  0.000071     3.778
   0.57774  0.43329  0.10561  1.26147  0.004738  0.001347  0.000520     3.518
   0.59394  0.41711  0.10630  1.26927  0.004300  0.001299  0.001048     3.311
   0.61007  0.40098  0.10679  1.27736  0.003941  0.001250  0.001601     3.153
   0.62617  0.38489  0.10708  1.28541  0.003641  0.001201  0.002163     3.031
   0.64227  0.36879  0.10718  1.29314  0.003390  0.001155  0.002708     2.936
   0.65836  0.35270  0.10708  1.30048  0.003170  0.001109  0.003259     2.858
   0.67432  0.33674  0.10680  1.30766  0.002953  0.001063  0.003926     2.777
   0.69010  0.32097  0.10629  1.31388  0.002765  0.001020  0.004587     2.710
   0.70583  0.30526  0.10554  1.31819  0.002635  0.000983  0.005012     2.680
   0.72167  0.28945  0.10454  1.32180  0.002519  0.000947  0.005386     2.660
   0.73747  0.27369  0.10335  1.32584  0.002377  0.000908  0.006019     2.617
   0.75302  0.25820  0.10195  1.32930  0.002227  0.000869  0.006856     2.562
   0.76841  0.24291  0.10027  1.32998  0.002120  0.000836  0.007421     2.535
   0.78386  0.22758  0.09831  1.32840  0.002052  0.000808  0.007622     2.540
   0.79934  0.21226  0.09610  1.32766  0.001956  0.000775  0.008146     2.522
   0.81467  0.19713  0.09366  1.32609  0.001856  0.000742  0.008780     2.500
   0.82983  0.18221  0.09095  1.32270  0.001771  0.000712  0.009292     2.488
   0.84493  0.16741  0.08797  1.31760  0.001707  0.000683  0.009510     2.498
   0.85995  0.15275  0.08473  1.31319  0.001621  0.000651  0.010043     2.492
   0.87475  0.13836  0.08125  1.30782  0.001537  0.000618  0.010594     2.488
   0.88915  0.12444  0.07757  1.30225  0.001429  0.000582  0.011754     2.454
   0.90314  0.11101  0.07364  1.29230  0.001353  0.000551  0.012329     2.453
   0.91683  0.09797  0.06946  1.28104  0.001292  0.000521  0.012449     2.480
   0.92993  0.08560  0.06517  1.27215  0.001194  0.000484  0.013614     2.463
   0.94206  0.07425  0.06087  1.26066  0.001074  0.000447  0.015984     2.401
   0.95332  0.06387  0.05649  1.23961  0.001015  0.000421  0.016470     2.410
   0.96371  0.05444  0.05215  1.21932  0.000964  0.000394  0.016460     2.445
   0.97301  0.04611  0.04801  1.20308  0.000883  0.000362  0.017857     2.438
   0.98119  0.03891  0.04412  1.18462  0.000800  0.000332  0.019955     2.411
   0.98837  0.03273  0.04046  1.16132  0.000736  0.000306  0.021353     2.406
   0.99470  0.02743  0.03701  1.13545  0.000666  0.000281  0.023871     2.372
   1.00030  0.02288  0.03375  1.10284  0.000617  0.000260  0.025151     2.368
   1.00527  0.01898  0.03066  1.06795  0.000568  0.000241  0.026628     2.360
   1.00973  0.01561  0.02774  1.02877  0.000519  0.000222  0.028744     2.336
   1.01375  0.01272  0.02495  0.98287  0.000482  0.000207  0.029726     2.331
   1.01739  0.01024  0.02228  0.93146  0.000441  0.000192  0.031711     2.300
   1.02073  0.00811  0.01971  0.87147  0.000415  0.000180  0.031381     2.304
   1.02380  0.00630  0.01724  0.80887  0.000385  0.000167  0.031467     2.301
   1.02664  0.00476  0.01485  0.73444  0.000351  0.000157  0.033332     2.236
   1.02926  0.00350  0.01255  0.65404  0.000351  0.000151  0.027308     2.326
   1.03171  0.00246  0.01033  0.57284  0.000304  0.000137  0.030739     2.210
   1.03400  0.00163  0.00819  0.47007  0.000313  0.000139  0.023417     2.258
   1.03618  0.00098  0.00612  0.37880  0.000292  0.000129  0.020237     2.259
   1.03826  0.00048  0.00410  0.27362  0.000273  0.000123  0.016139     2.222
   1.04024  0.00015  0.00214  0.16090  0.000267  0.000119  0.009476     2.250
   1.04215  0.00001  0.00024  0.03307  0.000223  0.000100  0.002370     2.230
   1.04400  0.00012 -0.00161 -0.12373  0.000223  0.000100  0.008867     2.230
   1.04587  0.00052 -0.00343 -0.27485  0.000230  0.000103  0.019014     2.236
   1.04780  0.00123 -0.00524 -0.41480  0.000244  0.000109  0.026806     2.247
   1.04986  0.00223 -0.00703 -0.54647  0.000256  0.000114  0.033687     2.245
   1.05205  0.00354 -0.00879 -0.65270  0.000290  0.000126  0.033763     2.299
   1.05438  0.00514 -0.01048 -0.73314  0.000326  0.000141  0.033563     2.306
   1.05689  0.00705 -0.01212 -0.79466  0.000371  0.000159  0.031038     2.337
   1.05960  0.00924 -0.01371 -0.83417  0.000434  0.000181  0.026383     2.392
   1.06254  0.01171 -0.01530 -0.86900  0.000473  0.000200  0.026020     2.361
   1.06576  0.01450 -0.01689 -0.90054  0.000520  0.000219  0.024252     2.372
   1.06931  0.01766 -0.01852 -0.92440  0.000581  0.000242  0.021530     2.406
   1.07328  0.02125 -0.02021 -0.94980  0.000618  0.000260  0.021446     2.375
   1.07773  0.02534 -0.02197 -0.97516  0.000664  0.000280  0.020485     2.376
   1.08275  0.03002 -0.02380 -0.99824  0.000719  0.000301  0.019142     2.388
   1.08845  0.03539 -0.02569 -1.01940  0.000777  0.000324  0.017925     2.398
   1.09493  0.04158 -0.02763 -1.03908  0.000839  0.000349  0.016784     2.405
   1.10237  0.04875 -0.02960 -1.05405  0.000926  0.000379  0.014901     2.440
   1.11095  0.05710 -0.03158 -1.06232  0.001042  0.000418  0.012627     2.492
   1.12083  0.06678 -0.03358 -1.06791  0.001154  0.000460  0.011222     2.512
   1.13204  0.07781 -0.03556 -1.07286  0.001263  0.000502  0.010280     2.514
   1.14448  0.09010 -0.03747 -1.07669  0.001379  0.000546  0.009358     2.523
   1.15809  0.10359 -0.03926 -1.07755  0.001522  0.000596  0.008192     2.555
   1.17266  0.11806 -0.04096 -1.07947  0.001629  0.000641  0.007770     2.543
   1.18781  0.13314 -0.04249 -1.08204  0.001729  0.000683  0.007438     2.531
   1.20335  0.14862 -0.04385 -1.08409  0.001836  0.000725  0.007003     2.533
   1.21923  0.16445 -0.04503 -1.08538  0.001947  0.000766  0.006549     2.541
   1.23540  0.18059 -0.04604 -1.08573  0.002066  0.000809  0.006080     2.555
   1.25175  0.19691 -0.04691 -1.08702  0.002152  0.000846  0.005913     2.545
   1.26813  0.21328 -0.04763 -1.08766  0.002252  0.000883  0.005622     2.550
   1.28457  0.22971 -0.04819 -1.08815  0.002348  0.000920  0.005375     2.553
   1.30115  0.24629 -0.04860 -1.08795  0.002454  0.000957  0.005073     2.565
   1.31783  0.26296 -0.04890 -1.08772  0.002553  0.000993  0.004844     2.571
   1.33448  0.27961 -0.04908 -1.08786  0.002634  0.001026  0.004713     2.568
   1.35110  0.29624 -0.04912 -1.08740  0.002731  0.001060  0.004498     2.576
   1.36778  0.31291 -0.04903 -1.08659  0.002833  0.001095  0.004278     2.588
   1.38450  0.32963 -0.04882 -1.08537  0.002941  0.001130  0.004047     2.603
   1.40120  0.34633 -0.04849 -1.08403  0.003045  0.001165  0.003851     2.615
   1.41786  0.36298 -0.04803 -1.08216  0.003163  0.001201  0.003617     2.634
   1.43449  0.37961 -0.04745 -1.07965  0.003298  0.001239  0.003345     2.663
   1.45114  0.39623 -0.04673 -1.07653  0.003451  0.001278  0.003049     2.700
   1.46777  0.41285 -0.04588 -1.07260  0.003636  0.001322  0.002704     2.751
   1.48439  0.42943 -0.04489 -1.06817  0.003840  0.001366  0.002359     2.810
   1.50097  0.44597 -0.04378 -1.06293  0.004097  0.001415  0.001956     2.895
   1.51751  0.46247 -0.04253 -1.05705  0.004417  0.001468  0.001516     3.009
   1.53401  0.47892 -0.04112 -1.05074  0.004826  0.001523  0.001042     3.169
   1.55050  0.49532 -0.03957 -1.04446  0.005350  0.001578  0.000566     3.391
   1.56702  0.51176 -0.03785 -1.03876  0.006015  0.001629  0.000138     3.692
   1.58368  0.52831 -0.03597 -1.03398  0.006831  0.001673 -0.000180     4.082
   1.60055  0.54506 -0.03395 -1.02994  0.007771  0.001713 -0.000350     4.536
   1.61761  0.56199 -0.03181 -1.02659  0.008809  0.001748 -0.000404     5.039
   1.63483  0.57906 -0.02959 -1.02393  0.009920  0.001778 -0.000403     5.578
   1.65218  0.59626 -0.02732 -1.02182  0.011077  0.001804 -0.000384     6.139
   1.66962  0.61355 -0.02500 -1.02012  0.012258  0.001826 -0.000366     6.711
   1.68712  0.63090 -0.02268 -1.01873  0.013433  0.001846 -0.000352     7.277
   1.70462  0.64824 -0.02037 -1.01755  0.014583  0.001864 -0.000342     7.825
   1.72205  0.66552 -0.01809 -1.01653  0.015689  0.001880 -0.000334     8.347
   1.73939  0.68272 -0.01585 -1.01563  0.016741  0.001895 -0.000328     8.836
   1.75663  0.69982 -0.01367 -1.01480  0.017715  0.001909 -0.000322     9.279
   1.77378  0.71684 -0.01156 -1.01400  0.018596  0.001924 -0.000318     9.667
   1.79085  0.73379 -0.00953 -1.01323  0.019368  0.001939 -0.000313     9.991
   1.80784  0.75067 -0.00760 -1.01245  0.020025  0.001954 -0.000310    10.248
   1.82474  0.76746 -0.00576 -1.01166  0.020548  0.001970 -0.000306    10.428
   1.84154  0.78418 -0.00404 -1.01083  0.020923  0.001988 -0.000303    10.524
   1.85823  0.80079 -0.00245 -1.00996  0.021130  0.002007 -0.000300    10.526
   1.87481  0.81731 -0.00100 -1.00901  0.021148  0.002029 -0.000297    10.425
   1.89126  0.83371  0.00030 -1.00797  0.020949  0.002052 -0.000294    10.209
   1.90759  0.85000  0.00143 -1.00681  0.020497  0.002078 -0.000291     9.863
   1.92381  0.86619  0.00238 -1.00548  0.019738  0.002108 -0.000289     9.363
   1.93987  0.88223  0.00314 -0.98785  0.018803  0.002530 -0.000214     7.433
   1.95573  0.89808  0.00370 -0.95962  0.017637  0.003230 -0.000192     5.461
   1.97131  0.91366  0.00404 -0.93113  0.016243  0.003960 -0.000073     4.101
   1.98653  0.92887  0.00415 -0.90961  0.014685  0.004523  0.000253     3.247
   2.00124  0.94358  0.00401 -0.89562  0.013088  0.004888  0.000687     2.677
   2.01526  0.95760  0.00361 -0.88936  0.011543  0.005053  0.001173     2.284
   2.02837  0.97069  0.00296 -0.89060  0.010089  0.005036  0.001707     2.004
   2.04040  0.98268  0.00205 -0.89918  0.008735  0.004866  0.002393     1.795
   2.05125  0.99348  0.00090 -0.91582  0.007455  0.004563  0.003289     1.634
   2.05783  1.00000  0.00000 -0.90911  0.007611  0.004700  0.003290     1.619
   2.05783  1.00010 -0.00002  0.90911  0.050517  0.017934  0.000000     2.817
   2.06446  1.00660 -0.00133  0.90910  0.046270  0.017936  0.000000     2.580
   2.07221  1.01424 -0.00263  0.90788  0.043969  0.018044  0.000000     2.437
   2.08127  1.02319 -0.00401  0.90696  0.041680  0.018124  0.000000     2.300
   2.09186  1.03367 -0.00547  0.90654  0.039344  0.018160  0.000000     2.166
   2.10423  1.04595 -0.00705  0.90689  0.036920  0.018131  0.000000     2.036
   2.11869  1.06031 -0.00876  0.90830  0.034420  0.018020  0.000000     1.910
   2.13560  1.07711 -0.01059  0.91099  0.031886  0.017816  0.000000     1.790
   2.15535  1.09677 -0.01257  0.91510  0.029381  0.017519  0.000000     1.677
   2.17845  1.11976 -0.01470  0.92059  0.026978  0.017143  0.000000     1.574
   2.20544  1.14666 -0.01698  0.92726  0.024748  0.016712  0.000000     1.481
   2.23698  1.17811 -0.01941  0.93472  0.022745  0.016258  0.000000     1.399
   2.27386  1.21489 -0.02198  0.94251  0.020995  0.015811  0.000000     1.328
   2.31695  1.25790 -0.02470  0.95019  0.019501  0.015393  0.000000     1.267
   2.36732  1.30819 -0.02754  0.95744  0.018248  0.015019  0.000000     1.215
   2.42619  1.36699 -0.03049  0.96407  0.017210  0.014692  0.000000     1.171
   2.49501  1.43574 -0.03351  0.96998  0.016359  0.014411  0.000000     1.135
   2.57543  1.51610 -0.03658  0.97517  0.015670  0.014173  0.000000     1.106
   2.66944  1.61006 -0.03963  0.97965  0.015118  0.013974  0.000000     1.082
   2.77931  1.71989 -0.04262  0.98347  0.014680  0.013808  0.000000     1.063
   2.90773  1.84828 -0.04545  0.98667  0.014337  0.013671  0.000000     1.049
   3.05782  1.99835 -0.04805  0.99002  0.014040  0.013531  0.000000     1.038
