#    s        x        y     Ue/Vinf    Dstar     Theta      Cf       H
   0.00000  1.00000  0.00000  0.91383  0.040147  0.014540  0.000299     2.761
   0.00668  0.99360  0.00192  0.91846  0.037649  0.014198  0.000378     2.652
   0.01807  0.98272  0.00530  0.92543  0.035038  0.013709  0.000464     2.556
   0.03106  0.97032  0.00914  0.93418  0.032319  0.013136  0.000569     2.460
   0.04516  0.95680  0.01317  0.94428  0.029765  0.012522  0.000683     2.377
   0.06006  0.94246  0.01720  0.95524  0.027515  0.011904  0.000794     2.312
   0.07565  0.92739  0.02118  0.96670  0.025600  0.011303  0.000895     2.265
   0.09186  0.91167  0.02516  0.97857  0.023965  0.010724  0.000981     2.235
   0.10852  0.89549  0.02915  0.99090  0.022540  0.010163  0.001051     2.218
   0.12544  0.87905  0.03313  1.00359  0.021307  0.009623  0.001102     2.214
   0.14250  0.86245  0.03708  1.01657  0.020254  0.009106  0.001128     2.224
   0.15964  0.84577  0.04099  1.02987  0.019372  0.008610  0.001126     2.250
   0.17681  0.82904  0.04484  1.04358  0.018648  0.008128  0.001089     2.294
   0.19398  0.81229  0.04864  1.05785  0.018077  0.007657  0.001015     2.361
   0.21115  0.79553  0.05238  1.07297  0.017658  0.007185  0.000900     2.458
   0.22833  0.77875  0.05606  1.08947  0.017375  0.006700  0.000745     2.593
   0.24546  0.76200  0.05967  1.10798  0.017219  0.006187  0.000562     2.783
   0.26249  0.74535  0.06319  1.12931  0.017189  0.005630  0.000384     3.053
   0.27941  0.72877  0.06660  1.15458  0.017284  0.005011  0.000162     3.449
   0.29629  0.71222  0.06990  1.18591  0.017457  0.004295 -0.000077     4.064
   0.31313  0.69568  0.07308  1.22251  0.017648  0.003522 -0.000238     5.011
   0.32994  0.67915  0.07616  1.26188  0.017790  0.002758 -0.000304     6.450
   0.34670  0.66266  0.07911  1.30598  0.017741  0.001978 -0.000375     8.971
   0.36339  0.64620  0.08193  1.32667  0.017586  0.001645 -0.000479    10.691
   0.38005  0.62976  0.08462  1.32787  0.017284  0.001628 -0.000485    10.614
   0.39672  0.61329  0.08718  1.32895  0.016765  0.001614 -0.000491    10.386
   0.41338  0.59681  0.08962  1.32999  0.016086  0.001601 -0.000498    10.045
   0.42997  0.58038  0.09191  1.33101  0.015291  0.001589 -0.000505     9.622
   0.44649  0.56400  0.09406  1.33208  0.014433  0.001577 -0.000513     9.153
   0.46301  0.54760  0.09605  1.33326  0.013532  0.001564 -0.000523     8.651
   0.47954  0.53117  0.09790  1.33458  0.012597  0.001551 -0.000535     8.123
   0.49603  0.51477  0.09961  1.33609  0.011630  0.001536 -0.000549     7.571
   0.51242  0.49845  0.10115  1.33786  0.010673  0.001520 -0.000568     7.023
   0.52875  0.48218  0.10252  1.34002  0.009753  0.001501 -0.000591     6.497
   0.54509  0.46588  0.10371  1.34264  0.008870  0.001480 -0.000620     5.994
   0.56144  0.44957  0.10475  1.34586  0.008021  0.001455 -0.000647     5.511
   0.57774  0.43329  0.10561  1.34979  0.007215  0.001428 -0.000651     5.053
   0.59394  0.41711  0.10630  1.35456  0.006475  0.001397 -0.000598     4.637
   0.61007  0.40098  0.10679  1.36021  0.005817  0.001362 -0.000443     4.272
   0.62617  0.38489  0.10708  1.36664  0.005233  0.001324 -0.000158     3.951
   0.64227  0.36879  0.10718  1.37399  0.004727  0.001284  0.000251     3.682
   0.65836  0.35270  0.10708  1.38226  0.004281  0.001239  0.000781     3.454
   0.67432  0.33674  0.10680  1.39133  0.003878  0.001192  0.001452     3.253
   0.69010  0.32097  0.10629  1.40062  0.003544  0.001145  0.002167     3.096
   0.70583  0.30526  0.10554  1.40930  0.003298  0.001100  0.002758     2.998
   0.72167  0.28945  0.10454  1.41753  0.003095  0.001057  0.003292     2.928
   0.73747  0.27369  0.10335  1.42603  0.002882  0.001012  0.003999     2.846
   0.75302  0.25820  0.10195  1.43428  0.002672  0.000968  0.004869     2.760
   0.76841  0.24291  0.10027  1.44043  0.002523  0.000930  0.005486     2.714
   0.78386  0.22758  0.09831  1.44499  0.002417  0.000895  0.005844     2.700
   0.79934  0.21226  0.09610  1.44986  0.002298  0.000859  0.006353     2.676
   0.81467  0.19713  0.09366  1.45462  0.002171  0.000822  0.007019     2.643
   0.82983  0.18221  0.09095  1.45783  0.002072  0.000788  0.007474     2.631
   0.84493  0.16741  0.08797  1.46037  0.001986  0.000754  0.007791     2.633
   0.85995  0.15275  0.08473  1.46342  0.001891  0.000719  0.008238     2.630
   0.87475  0.13836  0.08125  1.46679  0.001785  0.000682  0.008868     2.617
   0.88915  0.12444  0.07757  1.47039  0.001662  0.000643  0.009934     2.583
   0.90314  0.11101  0.07364  1.47130  0.001570  0.000608  0.010549     2.581
   0.91683  0.09797  0.06946  1.47139  0.001500  0.000575  0.010663     2.611
   0.92993  0.08560  0.06517  1.47489  0.001382  0.000535  0.011940     2.586
   0.94206  0.07425  0.06087  1.47759  0.001241  0.000494  0.014440     2.513
   0.95332  0.06387  0.05649  1.47196  0.001180  0.000464  0.014663     2.542
   0.96371  0.05444  0.05215  1.46883  0.001120  0.000433  0.014671     2.586
   0.97301  0.04611  0.04801  1.47044  0.001026  0.000398  0.016196     2.577
   0.98119  0.03891  0.04412  1.47150  0.000924  0.000364  0.018730     2.541
   0.98837  0.03273  0.04046  1.46857  0.000839  0.000334  0.021203     2.514
   0.99470  0.02743  0.03701  1.46221  0.000765  0.000307  0.023736     2.491
   1.00030  0.02288  0.03375  1.45252  0.000696  0.000283  0.026710     2.462
   1.00527  0.01898  0.03066  1.43822  0.000640  0.000261  0.029124     2.450
   1.00973  0.01561  0.02774  1.42115  0.000586  0.000241  0.032048     2.430
   1.01375  0.01272  0.02495  1.39953  0.000534  0.000223  0.035782     2.398
   1.01739  0.01024  0.02228  1.37070  0.000493  0.000207  0.038570     2.382
   1.02073  0.00811  0.01971  1.33669  0.000455  0.000192  0.041376     2.366
   1.02380  0.00630  0.01724  1.29615  0.000419  0.000179  0.044808     2.338
   1.02664  0.00476  0.01485  1.24624  0.000389  0.000168  0.047359     2.315
   1.02926  0.00350  0.01255  1.18801  0.000366  0.000159  0.048869     2.297
   1.03171  0.00246  0.01033  1.12212  0.000345  0.000152  0.049964     2.274
   1.03400  0.00163  0.00819  1.05016  0.000334  0.000146  0.047775     2.284
   1.03618  0.00098  0.00612  0.97911  0.000320  0.000140  0.046388     2.290
   1.03826  0.00048  0.00410  0.90491  0.000301  0.000132  0.045456     2.290
   1.04024  0.00015  0.00214  0.82850  0.000282  0.000121  0.042785     2.330
   1.04215  0.00001  0.00024  0.73794  0.000244  0.000108  0.046982     2.261
   1.04400  0.00012 -0.00161  0.61033  0.000228  0.000101  0.041639     2.256
   1.04587  0.00052 -0.00343  0.45739  0.000218  0.000098  0.033803     2.219
   1.04780  0.00123 -0.00524  0.28768  0.000230  0.000104  0.020176     2.216
   1.04986  0.00223 -0.00703  0.12952  0.000245  0.000110  0.008364     2.230
   1.05205  0.00354 -0.00879 -0.02437  0.000245  0.000110  0.001678     2.230
   1.05438  0.00514 -0.01048 -0.14553  0.000309  0.000137  0.007430     2.253
   1.05689  0.00705 -0.01212 -0.25308  0.000313  0.000141  0.013131     2.217
   1.05960  0.00924 -0.01371 -0.33606  0.000381  0.000164  0.013012     2.322
   1.06254  0.01171 -0.01530 -0.40934  0.000394  0.000177  0.016671     2.228
   1.06576  0.01450 -0.01689 -0.47497  0.000446  0.000194  0.015886     2.307
   1.06931  0.01766 -0.01852 -0.52966  0.000487  0.000212  0.016487     2.291
   1.07328  0.02125 -0.02021 -0.58072  0.000531  0.000231  0.016411     2.301
   1.07773  0.02534 -0.02197 -0.63005  0.000568  0.000248  0.016733     2.295
   1.08275  0.03002 -0.02380 -0.67519  0.000620  0.000268  0.016107     2.316
   1.08845  0.03539 -0.02569 -0.71866  0.000664  0.000287  0.016084     2.311
   1.09493  0.04158 -0.02763 -0.75785  0.000727  0.000311  0.015122     2.335
   1.10237  0.04875 -0.02960 -0.79185  0.000800  0.000340  0.014110     2.354
   1.11095  0.05710 -0.03158 -0.81918  0.000895  0.000375  0.012630     2.387
   1.12083  0.06678 -0.03358 -0.84312  0.000987  0.000412  0.011726     2.393
   1.13204  0.07781 -0.03556 -0.86575  0.001075  0.000450  0.011065     2.391
   1.14448  0.09010 -0.03747 -0.88464  0.001183  0.000491  0.010082     2.410
   1.15809  0.10359 -0.03926 -0.89948  0.001301  0.000535  0.009136     2.430
   1.17266  0.11806 -0.04096 -0.91367  0.001394  0.000576  0.008732     2.422
   1.18781  0.13314 -0.04249 -0.92727  0.001482  0.000614  0.008397     2.415
   1.20335  0.14862 -0.04385 -0.93879  0.001580  0.000652  0.007907     2.423
   1.21923  0.16445 -0.04503 -0.94874  0.001674  0.000689  0.007494     2.429
   1.23540  0.18059 -0.04604 -0.95626  0.001784  0.000729  0.006955     2.448
   1.25175  0.19691 -0.04691 -0.96418  0.001858  0.000762  0.006800     2.438
   1.26813  0.21328 -0.04763 -0.97123  0.001940  0.000795  0.006555     2.439
   1.28457  0.22971 -0.04819 -0.97724  0.002027  0.000829  0.006273     2.445
   1.30115  0.24629 -0.04860 -0.98194  0.002123  0.000863  0.005932     2.459
   1.31783  0.26296 -0.04890 -0.98659  0.002201  0.000895  0.005747     2.459
   1.33448  0.27961 -0.04908 -0.99152  0.002264  0.000923  0.005663     2.451
   1.35110  0.29624 -0.04912 -0.99516  0.002351  0.000955  0.005413     2.462
   1.36778  0.31291 -0.04903 -0.99824  0.002437  0.000986  0.005187     2.472
   1.38450  0.32963 -0.04882 -1.00098  0.002518  0.001016  0.005000     2.478
   1.40120  0.34633 -0.04849 -1.00359  0.002592  0.001045  0.004857     2.480
   1.41786  0.36298 -0.04803 -1.00544  0.002680  0.001076  0.004654     2.491
   1.43449  0.37961 -0.04745 -1.00665  0.002773  0.001107  0.004434     2.505
   1.45114  0.39623 -0.04673 -1.00719  0.002876  0.001140  0.004197     2.523
   1.46777  0.41285 -0.04588 -1.00697  0.002990  0.001174  0.003936     2.546
   1.48439  0.42943 -0.04489 -1.00620  0.003109  0.001210  0.003683     2.570
   1.50097  0.44597 -0.04378 -1.00461  0.003247  0.001247  0.003395     2.603
   1.51751  0.46247 -0.04253 -1.00204  0.003413  0.001289  0.003057     2.648
   1.53401  0.47892 -0.04112 -0.99837  0.003618  0.001335  0.002664     2.710
   1.55050  0.49532 -0.03957 -0.99361  0.003877  0.001386  0.002214     2.797
   1.56702  0.51176 -0.03785 -0.98780  0.004212  0.001443  0.001709     2.919
   1.58368  0.52831 -0.03597 -0.98136  0.004638  0.001503  0.001185     3.085
   1.60055  0.54506 -0.03395 -0.97495  0.005146  0.001564  0.000708     3.291
   1.61761  0.56199 -0.03181 -0.96904  0.005729  0.001620  0.000313     3.535
   1.63483  0.57906 -0.02959 -0.96384  0.006377  0.001672  0.000018     3.814
   1.65218  0.59626 -0.02732 -0.95932  0.007082  0.001719 -0.000180     4.120
   1.66962  0.61355 -0.02500 -0.95532  0.007827  0.001762 -0.000292     4.441
   1.68712  0.63090 -0.02268 -0.95180  0.008595  0.001803 -0.000343     4.768
   1.70462  0.64824 -0.02037 -0.94876  0.009375  0.001839 -0.000357     5.097
   1.72205  0.66552 -0.01809 -0.94614  0.010157  0.001873 -0.000354     5.422
   1.73939  0.68272 -0.01585 -0.94387  0.010934  0.001904 -0.000344     5.741
   1.75663  0.69982 -0.01367 -0.94187  0.011681  0.001933 -0.000332     6.042
   1.77378  0.71684 -0.01156 -0.94007  0.012391  0.001960 -0.000321     6.321
   1.79085  0.73379 -0.00953 -0.93844  0.013049  0.001986 -0.000312     6.569
   1.80784  0.75067 -0.00760 -0.93692  0.013653  0.002011 -0.000304     6.788
   1.82474  0.76746 -0.00576 -0.93548  0.014188  0.002036 -0.000298     6.968
   1.84154  0.78418 -0.00404 -0.93411  0.014642  0.002061 -0.000292     7.106
   1.85823  0.80079 -0.00245 -0.93277  0.015008  0.002085 -0.000287     7.198
   1.87481  0.81731 -0.00100 -0.93144  0.015271  0.002110 -0.000283     7.238
   1.89126  0.83371  0.00030 -0.93010  0.015418  0.002135 -0.000279     7.220
   1.90759  0.85000  0.00143 -0.92874  0.015439  0.002162 -0.000276     7.143
   1.92381  0.86619  0.00238 -0.92733  0.015325  0.002189 -0.000274     7.001
   1.93987  0.88223  0.00314 -0.92587  0.015077  0.002217 -0.000273     6.800
   1.95573  0.89808  0.00370 -0.92433  0.014682  0.002247 -0.000272     6.534
   1.97131  0.91366  0.00404 -0.92273  0.014138  0.002277 -0.000274     6.208
   1.98653  0.92887  0.00415 -0.92104  0.013432  0.002309 -0.000276     5.818
   2.00124  0.94358  0.00401 -0.91928  0.012573  0.002340 -0.000275     5.373
   2.01526  0.95760  0.00361 -0.91752  0.011582  0.002370 -0.000258     4.887
   2.02837  0.97069  0.00296 -0.91588  0.010478  0.002396 -0.000184     4.373
   2.04040  0.98268  0.00205 -0.91451  0.009303  0.002418  0.000015     3.848
   2.05125  0.99348  0.00090 -0.91457  0.008113  0.002418  0.000402     3.356
   2.05783  1.00000  0.00000 -0.91383  0.008144  0.002430  0.000404     3.352
   2.05783  1.00010 -0.00002  0.91383  0.048291  0.016968  0.000000     2.846
   2.06446  1.00660 -0.00132  0.91437  0.044501  0.016921  0.000000     2.630
   2.07221  1.01424 -0.00259  0.91385  0.042451  0.016965  0.000000     2.502
   2.08127  1.02320 -0.00392  0.91353  0.040426  0.016991  0.000000     2.379
   2.09186  1.03370 -0.00531  0.91355  0.038371  0.016990  0.000000     2.258
   2.10423  1.04598 -0.00679  0.91411  0.036242  0.016946  0.000000     2.139
   2.11869  1.06036 -0.00835  0.91541  0.034039  0.016848  0.000000     2.020
   2.13560  1.07718 -0.01000  0.91763  0.031787  0.016687  0.000000     1.905
   2.15535  1.09687 -0.01173  0.92090  0.029531  0.016460  0.000000     1.794
   2.17845  1.11989 -0.01353  0.92525  0.027325  0.016173  0.000000     1.690
   2.20544  1.14681 -0.01539  0.93058  0.025227  0.015838  0.000000     1.593
   2.23698  1.17830 -0.01728  0.93668  0.023290  0.015475  0.000000     1.505
   2.27386  1.21513 -0.01916  0.94322  0.021547  0.015106  0.000000     1.426
   2.31695  1.25818 -0.02101  0.94988  0.020015  0.014751  0.000000     1.357
   2.36732  1.30852 -0.02274  0.95635  0.018693  0.014421  0.000000     1.296
   2.42619  1.36738 -0.02430  0.96243  0.017566  0.014126  0.000000     1.244
   2.49501  1.43618 -0.02557  0.96799  0.016616  0.013866  0.000000     1.198
   2.57543  1.51660 -0.02645  0.97298  0.015823  0.013641  0.000000     1.160
   2.66944  1.61060 -0.02679  0.97738  0.015167  0.013449  0.000000     1.128
   2.77931  1.72047 -0.02641  0.98122  0.014632  0.013285  0.000000     1.101
   2.90773  1.84888 -0.02510  0.98452  0.014200  0.013149  0.000000     1.080
   3.05782  1.99896 -0.02260  0.98822  0.013814  0.012998  0.000000     1.063
