#    s        x        y     Ue/Vinf    Dstar     Theta      Cf       H
   0.00000  1.00000  0.00000  0.90558  0.036013  0.014849  0.000556     2.425
   0.00668  0.99360  0.00192  0.91146  0.033787  0.014431  0.000659     2.341
   0.01807  0.98272  0.00530  0.92022  0.031183  0.013845  0.000793     2.252
   0.03106  0.97032  0.00914  0.93120  0.028455  0.013165  0.000962     2.161
   0.04516  0.95680  0.01317  0.94374  0.025895  0.012450  0.001152     2.080
   0.06006  0.94246  0.01720  0.95711  0.023650  0.011752  0.001348     2.012
   0.07565  0.92739  0.02118  0.97076  0.021745  0.011095  0.001538     1.960
   0.09186  0.91167  0.02516  0.98458  0.020118  0.010481  0.001718     1.919
   0.10852  0.89549  0.02915  0.99867  0.018692  0.009901  0.001892     1.888
   0.12544  0.87905  0.03313  1.01291  0.017441  0.009356  0.002055     1.864
   0.14250  0.86245  0.03708  1.02718  0.016350  0.008848  0.002202     1.848
   0.15964  0.84577  0.04099  1.04142  0.015400  0.008374  0.002330     1.839
   0.17681  0.82904  0.04484  1.05559  0.014578  0.007933  0.002434     1.838
   0.19398  0.81229  0.04864  1.06967  0.013870  0.007521  0.002506     1.844
   0.21115  0.79553  0.05238  1.08363  0.013276  0.007137  0.002539     1.860
   0.22833  0.77875  0.05606  1.09765  0.012778  0.006773  0.002527     1.887
   0.24546  0.76200  0.05967  1.11186  0.012370  0.006424  0.002464     1.926
   0.26249  0.74535  0.06319  1.12626  0.012069  0.006089  0.002336     1.982
   0.27941  0.72877  0.06660  1.14092  0.011897  0.005766  0.002126     2.063
   0.29629  0.71222  0.06990  1.15641  0.011862  0.005442  0.001828     2.179
   0.31313  0.69568  0.07308  1.17367  0.011973  0.005100  0.001445     2.348
   0.32994  0.67915  0.07616  1.19412  0.012231  0.004714  0.001080     2.595
   0.34670  0.66266  0.07911  1.21973  0.012623  0.004254  0.000654     2.967
   0.36339  0.64620  0.08193  1.25283  0.013117  0.003694  0.000164     3.551
   0.38005  0.62976  0.08462  1.29670  0.013640  0.003000 -0.000253     4.547
   0.39672  0.61329  0.08718  1.34684  0.014071  0.002270 -0.000393     6.200
   0.41338  0.59681  0.08962  1.39556  0.014261  0.001624 -0.000526     8.781
   0.42997  0.58038  0.09191  1.39746  0.014293  0.001602 -0.000532     8.919
   0.44649  0.56400  0.09406  1.39915  0.014056  0.001584 -0.000539     8.875
   0.46301  0.54760  0.09605  1.40075  0.013644  0.001567 -0.000548     8.709
   0.47954  0.53117  0.09790  1.40232  0.013094  0.001550 -0.000557     8.445
   0.49603  0.51477  0.09961  1.40392  0.012433  0.001535 -0.000569     8.101
   0.51242  0.49845  0.10115  1.40562  0.011705  0.001519 -0.000582     7.707
   0.52875  0.48218  0.10252  1.40750  0.010954  0.001502 -0.000598     7.292
   0.54509  0.46588  0.10371  1.40963  0.010185  0.001484 -0.000617     6.862
   0.56144  0.44957  0.10475  1.41208  0.009396  0.001465 -0.000642     6.415
   0.57774  0.43329  0.10561  1.41495  0.008608  0.001443 -0.000672     5.965
   0.59394  0.41711  0.10630  1.41836  0.007840  0.001419 -0.000699     5.524
   0.61007  0.40098  0.10679  1.42244  0.007123  0.001392 -0.000708     5.115
   0.62617  0.38489  0.10708  1.42732  0.006448  0.001363 -0.000672     4.732
   0.64227  0.36879  0.10718  1.43308  0.005835  0.001330 -0.000554     4.389
   0.65836  0.35270  0.10708  1.43966  0.005264  0.001294 -0.000309     4.069
   0.67432  0.33674  0.10680  1.44708  0.004735  0.001255  0.000103     3.772
   0.69010  0.32097  0.10629  1.45543  0.004284  0.001214  0.000639     3.529
   0.70583  0.30526  0.10554  1.46439  0.003930  0.001171  0.001187     3.356
   0.72167  0.28945  0.10454  1.47371  0.003638  0.001127  0.001729     3.228
   0.73747  0.27369  0.10335  1.48365  0.003344  0.001081  0.002446     3.093
   0.75302  0.25820  0.10195  1.49368  0.003074  0.001035  0.003283     2.969
   0.76841  0.24291  0.10027  1.50241  0.002882  0.000994  0.003906     2.900
   0.78386  0.22758  0.09831  1.51003  0.002745  0.000956  0.004293     2.871
   0.79934  0.21226  0.09610  1.51815  0.002593  0.000916  0.004841     2.830
   0.81467  0.19713  0.09366  1.52615  0.002443  0.000876  0.005471     2.787
   0.82983  0.18221  0.09095  1.53308  0.002324  0.000839  0.005913     2.769
   0.84493  0.16741  0.08797  1.53955  0.002227  0.000804  0.006181     2.771
   0.85995  0.15275  0.08473  1.54703  0.002112  0.000765  0.006644     2.760
   0.87475  0.13836  0.08125  1.55492  0.001992  0.000726  0.007226     2.744
   0.88915  0.12444  0.07757  1.56349  0.001853  0.000685  0.008197     2.706
   0.90314  0.11101  0.07364  1.57019  0.001751  0.000647  0.008725     2.704
   0.91683  0.09797  0.06946  1.57672  0.001671  0.000611  0.008817     2.737
   0.92993  0.08560  0.06517  1.58702  0.001533  0.000568  0.010141     2.699
   0.94206  0.07425  0.06087  1.59664  0.001386  0.000526  0.012181     2.635
   0.95332  0.06387  0.05649  1.60066  0.001316  0.000493  0.012335     2.670
   0.96371  0.05444  0.05215  1.60732  0.001246  0.000459  0.012357     2.717
   0.97301  0.04611  0.04801  1.61853  0.001135  0.000421  0.014008     2.697
   0.98119  0.03891  0.04412  1.62921  0.001022  0.000385  0.016458     2.656
   0.98837  0.03273  0.04046  1.63715  0.000923  0.000352  0.019100     2.619
   0.99470  0.02743  0.03701  1.64226  0.000836  0.000323  0.022010     2.585
   1.00030  0.02288  0.03375  1.64416  0.000760  0.000297  0.025089     2.554
   1.00527  0.01898  0.03066  1.64275  0.000692  0.000274  0.028396     2.526
   1.00973  0.01561  0.02774  1.63777  0.000630  0.000252  0.032167     2.495
   1.01375  0.01272  0.02495  1.62812  0.000574  0.000233  0.036304     2.462
   1.01739  0.01024  0.02228  1.61275  0.000526  0.000216  0.040408     2.434
   1.02073  0.00811  0.01971  1.59146  0.000484  0.000201  0.044322     2.412
   1.02380  0.00630  0.01724  1.56404  0.000443  0.000186  0.049419     2.374
   1.02664  0.00476  0.01485  1.52676  0.000410  0.000175  0.053470     2.346
   1.02926  0.00350  0.01255  1.48104  0.000384  0.000165  0.056661     2.323
   1.03171  0.00246  0.01033  1.42739  0.000361  0.000157  0.059475     2.297
   1.03400  0.00163  0.00819  1.36714  0.000351  0.000152  0.057582     2.316
   1.03618  0.00098  0.00612  1.31043  0.000336  0.000144  0.056781     2.333
   1.03826  0.00048  0.00410  1.25534  0.000317  0.000134  0.056137     2.361
   1.04024  0.00015  0.00214  1.19875  0.000286  0.000121  0.060049     2.351
   1.04215  0.00001  0.00024  1.12512  0.000253  0.000109  0.065479     2.322
   1.04400  0.00012 -0.00161  1.01479  0.000223  0.000099  0.071213     2.253
   1.04587  0.00052 -0.00343  0.85814  0.000215  0.000097  0.063891     2.228
   1.04780  0.00123 -0.00524  0.67738  0.000219  0.000100  0.050895     2.199
   1.04986  0.00223 -0.00703  0.49927  0.000235  0.000105  0.033917     2.232
   1.05205  0.00354 -0.00879  0.33144  0.000241  0.000109  0.022438     2.207
   1.05438  0.00514 -0.01048  0.17350  0.000277  0.000125  0.010167     2.213
   1.05689  0.00705 -0.01212  0.04804  0.000318  0.000142  0.002419     2.230
   1.05960  0.00924 -0.01371 -0.06523  0.000318  0.000142  0.003287     2.230
   1.06254  0.01171 -0.01530 -0.15907  0.000386  0.000170  0.006346     2.271
   1.06576  0.01450 -0.01689 -0.24041  0.000407  0.000183  0.009478     2.225
   1.06931  0.01766 -0.01852 -0.31129  0.000465  0.000203  0.010131     2.291
   1.07328  0.02125 -0.02021 -0.37696  0.000489  0.000218  0.012153     2.245
   1.07773  0.02534 -0.02197 -0.43963  0.000536  0.000235  0.012492     2.283
   1.08275  0.03002 -0.02380 -0.49634  0.000581  0.000254  0.013032     2.283
   1.08845  0.03539 -0.02569 -0.55129  0.000624  0.000273  0.013435     2.285
   1.09493  0.04158 -0.02763 -0.60154  0.000683  0.000296  0.013131     2.306
   1.10237  0.04875 -0.02960 -0.64633  0.000751  0.000324  0.012667     2.320
   1.11095  0.05710 -0.03158 -0.68427  0.000839  0.000358  0.011694     2.347
   1.12083  0.06678 -0.03358 -0.71871  0.000921  0.000392  0.011191     2.347
   1.13204  0.07781 -0.03556 -0.75033  0.001009  0.000429  0.010590     2.355
   1.14448  0.09010 -0.03747 -0.77790  0.001106  0.000467  0.009897     2.367
   1.15809  0.10359 -0.03926 -0.80057  0.001216  0.000509  0.009090     2.386
   1.17266  0.11806 -0.04096 -0.82136  0.001306  0.000549  0.008727     2.381
   1.18781  0.13314 -0.04249 -0.84109  0.001387  0.000584  0.008479     2.374
   1.20335  0.14862 -0.04385 -0.85774  0.001482  0.000621  0.007989     2.386
   1.21923  0.16445 -0.04503 -0.87198  0.001574  0.000657  0.007583     2.395
   1.23540  0.18059 -0.04604 -0.88378  0.001672  0.000695  0.007144     2.407
   1.25175  0.19691 -0.04691 -0.89516  0.001747  0.000728  0.006969     2.401
   1.26813  0.21328 -0.04763 -0.90581  0.001819  0.000758  0.006793     2.398
   1.28457  0.22971 -0.04819 -0.91463  0.001906  0.000791  0.006469     2.410
   1.30115  0.24629 -0.04860 -0.92225  0.001993  0.000824  0.006181     2.419
   1.31783  0.26296 -0.04890 -0.92939  0.002068  0.000854  0.005993     2.421
   1.33448  0.27961 -0.04908 -0.93659  0.002129  0.000882  0.005906     2.415
   1.35110  0.29624 -0.04912 -0.94274  0.002203  0.000910  0.005708     2.420
   1.36778  0.31291 -0.04903 -0.94788  0.002286  0.000940  0.005473     2.431
   1.38450  0.32963 -0.04882 -0.95280  0.002357  0.000968  0.005320     2.434
   1.40120  0.34633 -0.04849 -0.95724  0.002428  0.000996  0.005166     2.438
   1.41786  0.36298 -0.04803 -0.96115  0.002502  0.001024  0.005005     2.444
   1.43449  0.37961 -0.04745 -0.96416  0.002588  0.001053  0.004790     2.457
   1.45114  0.39623 -0.04673 -0.96673  0.002671  0.001083  0.004603     2.467
   1.46777  0.41285 -0.04588 -0.96839  0.002768  0.001114  0.004368     2.485
   1.48439  0.42943 -0.04489 -0.96963  0.002862  0.001145  0.004163     2.499
   1.50097  0.44597 -0.04378 -0.96991  0.002976  0.001179  0.003904     2.523
   1.51751  0.46247 -0.04253 -0.96944  0.003099  0.001215  0.003635     2.551
   1.53401  0.47892 -0.04112 -0.96779  0.003254  0.001255  0.003299     2.592
   1.55050  0.49532 -0.03957 -0.96511  0.003435  0.001299  0.002932     2.645
   1.56702  0.51176 -0.03785 -0.96102  0.003675  0.001349  0.002479     2.724
   1.58368  0.52831 -0.03597 -0.95590  0.003968  0.001405  0.002002     2.825
   1.60055  0.54506 -0.03395 -0.95019  0.004308  0.001463  0.001544     2.945
   1.61761  0.56199 -0.03181 -0.94434  0.004682  0.001522  0.001142     3.077
   1.63483  0.57906 -0.02959 -0.93859  0.005087  0.001580  0.000800     3.219
   1.65218  0.59626 -0.02732 -0.93311  0.005517  0.001636  0.000516     3.372
   1.66962  0.61355 -0.02500 -0.92799  0.005969  0.001690  0.000289     3.531
   1.68712  0.63090 -0.02268 -0.92328  0.006428  0.001741  0.000115     3.692
   1.70462  0.64824 -0.02037 -0.91897  0.006893  0.001789 -0.000015     3.852
   1.72205  0.66552 -0.01809 -0.91502  0.007358  0.001835 -0.000109     4.010
   1.73939  0.68272 -0.01585 -0.91139  0.007822  0.001878 -0.000176     4.164
   1.75663  0.69982 -0.01367 -0.90802  0.008267  0.001920 -0.000220     4.306
   1.77378  0.71684 -0.01156 -0.90489  0.008686  0.001960 -0.000247     4.431
   1.79085  0.73379 -0.00953 -0.90198  0.009070  0.001999 -0.000263     4.537
   1.80784  0.75067 -0.00760 -0.89924  0.009420  0.002037 -0.000271     4.625
   1.82474  0.76746 -0.00576 -0.89666  0.009723  0.002073 -0.000273     4.690
   1.84154  0.78418 -0.00404 -0.89421  0.009970  0.002109 -0.000272     4.728
   1.85823  0.80079 -0.00245 -0.89186  0.010158  0.002143 -0.000268     4.739
   1.87481  0.81731 -0.00100 -0.88958  0.010272  0.002178 -0.000261     4.717
   1.89126  0.83371  0.00030 -0.88736  0.010302  0.002212 -0.000250     4.657
   1.90759  0.85000  0.00143 -0.88518  0.010243  0.002246 -0.000233     4.561
   1.92381  0.86619  0.00238 -0.88303  0.010087  0.002279 -0.000207     4.426
   1.93987  0.88223  0.00314 -0.88091  0.009840  0.002312 -0.000165     4.256
   1.95573  0.89808  0.00370 -0.87884  0.009495  0.002344 -0.000098     4.050
   1.97131  0.91366  0.00404 -0.87694  0.009056  0.002374  0.000009     3.814
   1.98653  0.92887  0.00415 -0.87551  0.008514  0.002397  0.000177     3.551
   2.00124  0.94358  0.00401 -0.87506  0.007886  0.002407  0.000426     3.277
   2.01526  0.95760  0.00361 -0.87633  0.007192  0.002394  0.000779     3.004
   2.02837  0.97069  0.00296 -0.88032  0.006438  0.002350  0.001272     2.739
   2.04040  0.98268  0.00205 -0.88840  0.005632  0.002266  0.001967     2.486
   2.05125  0.99348  0.00090 -0.90291  0.004768  0.002127  0.002999     2.242
   2.05783  1.00000  0.00000 -0.90558  0.004695  0.002113  0.003110     2.222
   2.05783  1.00010 -0.00002  0.90558  0.040708  0.016961  0.000000     2.400
   2.06446  1.00660 -0.00132  0.90915  0.037852  0.016675  0.000000     2.270
   2.07221  1.01425 -0.00257  0.91053  0.036307  0.016568  0.000000     2.191
   2.08127  1.02321 -0.00387  0.91200  0.034794  0.016457  0.000000     2.114
   2.09186  1.03371 -0.00522  0.91370  0.033269  0.016333  0.000000     2.037
   2.10423  1.04600 -0.00664  0.91579  0.031697  0.016184  0.000000     1.959
   2.11869  1.06039 -0.00813  0.91839  0.030077  0.016006  0.000000     1.879
   2.13560  1.07722 -0.00967  0.92158  0.028423  0.015794  0.000000     1.800
   2.15535  1.09691 -0.01127  0.92541  0.026759  0.015549  0.000000     1.721
   2.17845  1.11995 -0.01290  0.92988  0.025117  0.015276  0.000000     1.644
   2.20544  1.14689 -0.01453  0.93490  0.023529  0.014983  0.000000     1.570
   2.23698  1.17840 -0.01613  0.94034  0.022028  0.014678  0.000000     1.501
   2.27386  1.21524 -0.01764  0.94603  0.020637  0.014374  0.000000     1.436
   2.31695  1.25831 -0.01901  0.95177  0.019372  0.014081  0.000000     1.376
   2.36732  1.30867 -0.02015  0.95740  0.018240  0.013806  0.000000     1.321
   2.42619  1.36754 -0.02096  0.96276  0.017240  0.013554  0.000000     1.272
   2.49501  1.43635 -0.02130  0.96776  0.016367  0.013328  0.000000     1.228
   2.57543  1.51677 -0.02101  0.97235  0.015611  0.013128  0.000000     1.189
   2.66944  1.61077 -0.01989  0.97648  0.014966  0.012952  0.000000     1.155
   2.77931  1.72062 -0.01771  0.98016  0.014421  0.012800  0.000000     1.127
   2.90773  1.84899 -0.01417  0.98338  0.013968  0.012670  0.000000     1.102
   3.05782  1.99899 -0.00894  0.98714  0.013550  0.012521  0.000000     1.082
