#    s        x        y     Ue/Vinf    Dstar     Theta      Cf       H
   0.00000  1.00000  0.00000  0.97809  0.079363  0.011955 -0.000077     6.639
   0.00668  0.99360  0.00192  0.98032  0.075823  0.011725 -0.000079     6.467
   0.01807  0.98272  0.00530  0.98484  0.072943  0.011277 -0.000083     6.468
   0.03106  0.97032  0.00914  0.99039  0.069977  0.010753 -0.000087     6.508
   0.04516  0.95680  0.01317  0.99692  0.067110  0.010166 -0.000092     6.602
   0.06006  0.94246  0.01720  1.00441  0.064429  0.009526 -0.000098     6.763
   0.07565  0.92739  0.02118  1.01295  0.061948  0.008837 -0.000106     7.010
   0.09186  0.91167  0.02516  1.02263  0.059612  0.008099 -0.000115     7.361
   0.10852  0.89549  0.02915  1.03352  0.057353  0.007316 -0.000126     7.839
   0.12544  0.87905  0.03313  1.04571  0.055162  0.006495 -0.000142     8.493
   0.14250  0.86245  0.03708  1.05940  0.053017  0.005634 -0.000162     9.410
   0.15964  0.84577  0.04099  1.07517  0.050885  0.004713 -0.000194    10.796
   0.17681  0.82904  0.04484  1.09379  0.048713  0.003710 -0.000245    13.131
   0.19398  0.81229  0.04864  1.11734  0.046382  0.002548 -0.000275    18.203
   0.21115  0.79553  0.05238  1.13146  0.044288  0.001924 -0.000475    23.015
   0.22833  0.77875  0.05606  1.13157  0.042455  0.001923 -0.000476    22.075
   0.24546  0.76200  0.05967  1.13162  0.040460  0.001924 -0.000477    21.028
   0.26249  0.74535  0.06319  1.13165  0.038370  0.001926 -0.000477    19.921
   0.27941  0.72877  0.06660  1.13167  0.036238  0.001929 -0.000478    18.789
   0.29629  0.71222  0.06990  1.13169  0.034082  0.001931 -0.000479    17.647
   0.31313  0.69568  0.07308  1.13171  0.031918  0.001934 -0.000480    16.506
   0.32994  0.67915  0.07616  1.13175  0.029765  0.001936 -0.000481    15.377
   0.34670  0.66266  0.07911  1.13182  0.027627  0.001937 -0.000483    14.264
   0.36339  0.64620  0.08193  1.13194  0.025528  0.001937 -0.000486    13.181
   0.38005  0.62976  0.08462  1.13213  0.023487  0.001935 -0.000490    12.137
   0.39672  0.61329  0.08718  1.13243  0.021502  0.001931 -0.000496    11.133
   0.41338  0.59681  0.08962  1.13285  0.019575  0.001925 -0.000503    10.166
   0.42997  0.58038  0.09191  1.13345  0.017711  0.001917 -0.000512     9.240
   0.44649  0.56400  0.09406  1.13430  0.015957  0.001905 -0.000525     8.377
   0.46301  0.54760  0.09605  1.13547  0.014302  0.001889 -0.000543     7.573
   0.47954  0.53117  0.09790  1.13707  0.012746  0.001868 -0.000566     6.824
   0.49603  0.51477  0.09961  1.13919  0.011288  0.001842 -0.000599     6.127
   0.51242  0.49845  0.10115  1.14200  0.009963  0.001811 -0.000631     5.501
   0.52875  0.48218  0.10252  1.14566  0.008785  0.001774 -0.000627     4.954
   0.54509  0.46588  0.10371  1.15031  0.007747  0.001730 -0.000530     4.479
   0.56144  0.44957  0.10475  1.15589  0.006832  0.001680 -0.000270     4.066
   0.57774  0.43329  0.10561  1.16242  0.006032  0.001626  0.000192     3.710
   0.59394  0.41711  0.10630  1.16996  0.005378  0.001566  0.000796     3.435
   0.61007  0.40098  0.10679  1.17821  0.004838  0.001502  0.001500     3.222
   0.62617  0.38489  0.10708  1.18666  0.004397  0.001437  0.002246     3.060
   0.64227  0.36879  0.10718  1.19489  0.004032  0.001374  0.003007     2.936
   0.65836  0.35270  0.10708  1.20245  0.003733  0.001313  0.003737     2.842
   0.67432  0.33674  0.10680  1.20958  0.003453  0.001254  0.004573     2.753
   0.69010  0.32097  0.10629  1.21552  0.003215  0.001199  0.005398     2.682
   0.70583  0.30526  0.10554  1.21951  0.003042  0.001151  0.005995     2.643
   0.72167  0.28945  0.10454  1.22228  0.002900  0.001106  0.006459     2.622
   0.73747  0.27369  0.10335  1.22529  0.002727  0.001058  0.007236     2.579
   0.75302  0.25820  0.10195  1.22746  0.002545  0.001009  0.008275     2.521
   0.76841  0.24291  0.10027  1.22608  0.002429  0.000971  0.008834     2.503
   0.78386  0.22758  0.09831  1.22321  0.002332  0.000934  0.009239     2.497
   0.79934  0.21226  0.09610  1.21994  0.002225  0.000896  0.009784     2.484
   0.81467  0.19713  0.09366  1.21603  0.002104  0.000856  0.010602     2.458
   0.82983  0.18221  0.09095  1.20957  0.002006  0.000819  0.011186     2.448
   0.84493  0.16741  0.08797  1.20131  0.001925  0.000785  0.011514     2.453
   0.85995  0.15275  0.08473  1.19297  0.001826  0.000747  0.012141     2.446
   0.87475  0.13836  0.08125  1.18316  0.001728  0.000708  0.012779     2.441
   0.88915  0.12444  0.07757  1.17230  0.001608  0.000667  0.014002     2.413
   0.90314  0.11101  0.07364  1.15696  0.001518  0.000630  0.014690     2.409
   0.91683  0.09797  0.06946  1.13964  0.001437  0.000594  0.015102     2.421
   0.92993  0.08560  0.06517  1.12233  0.001334  0.000552  0.016132     2.415
   0.94206  0.07425  0.06087  1.10210  0.001206  0.000510  0.018417     2.364
   0.95332  0.06387  0.05649  1.07274  0.001130  0.000479  0.019220     2.360
   0.96371  0.05444  0.05215  1.04200  0.001071  0.000448  0.019179     2.387
   0.97301  0.04611  0.04801  1.01433  0.000985  0.000412  0.020288     2.388
   0.98119  0.03891  0.04412  0.98433  0.000889  0.000377  0.022411     2.360
   0.98837  0.03273  0.04046  0.94753  0.000812  0.000347  0.024126     2.338
   0.99470  0.02743  0.03701  0.90658  0.000757  0.000322  0.024470     2.350
   1.00030  0.02288  0.03375  0.86379  0.000683  0.000295  0.026752     2.314
   1.00527  0.01898  0.03066  0.81327  0.000638  0.000275  0.026722     2.323
   1.00973  0.01561  0.02774  0.75964  0.000580  0.000253  0.028299     2.291
   1.01375  0.01272  0.02495  0.69612  0.000541  0.000238  0.028240     2.275
   1.01739  0.01024  0.02228  0.62983  0.000512  0.000223  0.026397     2.297
   1.02073  0.00811  0.01971  0.56063  0.000465  0.000205  0.026590     2.270
   1.02380  0.00630  0.01724  0.47913  0.000432  0.000191  0.024634     2.261
   1.02664  0.00476  0.01485  0.38835  0.000406  0.000182  0.021731     2.236
   1.02926  0.00350  0.01255  0.29399  0.000392  0.000173  0.016705     2.259
   1.03171  0.00246  0.01033  0.19506  0.000358  0.000160  0.012387     2.235
   1.03400  0.00163  0.00819  0.08560  0.000349  0.000157  0.005607     2.230
   1.03618  0.00098  0.00612 -0.02191  0.000349  0.000157  0.001436     2.230
   1.03826  0.00048  0.00410 -0.13803  0.000317  0.000143  0.010010     2.222
   1.04024  0.00015  0.00214 -0.28716  0.000271  0.000123  0.024818     2.202
   1.04215  0.00001  0.00024 -0.44505  0.000272  0.000121  0.036878     2.247
   1.04400  0.00012 -0.00161 -0.60408  0.000262  0.000119  0.053553     2.210
   1.04587  0.00052 -0.00343 -0.76001  0.000271  0.000120  0.062997     2.251
   1.04780  0.00123 -0.00524 -0.88727  0.000296  0.000130  0.065141     2.284
   1.04986  0.00223 -0.00703 -0.98726  0.000330  0.000143  0.063769     2.307
   1.05205  0.00354 -0.00879 -1.06903  0.000363  0.000157  0.062077     2.317
   1.05438  0.00514 -0.01048 -1.12478  0.000419  0.000176  0.053448     2.378
   1.05689  0.00705 -0.01212 -1.15580  0.000489  0.000201  0.044330     2.437
   1.05960  0.00924 -0.01371 -1.16441  0.000589  0.000232  0.033360     2.536
   1.06254  0.01171 -0.01530 -1.17584  0.000637  0.000257  0.033248     2.476
   1.06576  0.01450 -0.01689 -1.18544  0.000707  0.000284  0.029731     2.491
   1.06931  0.01766 -0.01852 -1.19269  0.000779  0.000311  0.026805     2.503
   1.07328  0.02125 -0.02021 -1.19906  0.000849  0.000339  0.024615     2.506
   1.07773  0.02534 -0.02197 -1.20649  0.000913  0.000366  0.023367     2.493
   1.08275  0.03002 -0.02380 -1.21436  0.000980  0.000394  0.022062     2.487
   1.08845  0.03539 -0.02569 -1.22265  0.001049  0.000423  0.020872     2.482
   1.09493  0.04158 -0.02763 -1.22806  0.001145  0.000457  0.018687     2.507
   1.10237  0.04875 -0.02960 -1.23097  0.001254  0.000495  0.016634     2.533
   1.11095  0.05710 -0.03158 -1.22772  0.001416  0.000544  0.013583     2.603
   1.12083  0.06678 -0.03358 -1.22198  0.001580  0.000598  0.011545     2.644
   1.13204  0.07781 -0.03556 -1.21693  0.001721  0.000651  0.010561     2.644
   1.14448  0.09010 -0.03747 -1.20993  0.001903  0.000711  0.009124     2.677
   1.15809  0.10359 -0.03926 -1.20251  0.002084  0.000772  0.008071     2.698
   1.17266  0.11806 -0.04096 -1.19631  0.002238  0.000831  0.007532     2.692
   1.18781  0.13314 -0.04249 -1.19255  0.002350  0.000884  0.007442     2.659
   1.20335  0.14862 -0.04385 -1.18841  0.002498  0.000938  0.006947     2.663
   1.21923  0.16445 -0.04503 -1.18465  0.002638  0.000990  0.006550     2.664
   1.23540  0.18059 -0.04604 -1.18041  0.002796  0.001044  0.006049     2.679
   1.25175  0.19691 -0.04691 -1.17750  0.002909  0.001091  0.005889     2.666
   1.26813  0.21328 -0.04763 -1.17477  0.003028  0.001137  0.005673     2.662
   1.28457  0.22971 -0.04819 -1.17187  0.003157  0.001184  0.005391     2.667
   1.30115  0.24629 -0.04860 -1.16882  0.003293  0.001230  0.005096     2.677
   1.31783  0.26296 -0.04890 -1.16574  0.003428  0.001276  0.004824     2.687
   1.33448  0.27961 -0.04908 -1.16333  0.003534  0.001318  0.004697     2.682
   1.35110  0.29624 -0.04912 -1.16061  0.003660  0.001361  0.004484     2.689
   1.36778  0.31291 -0.04903 -1.15737  0.003809  0.001406  0.004193     2.709
   1.38450  0.32963 -0.04882 -1.15430  0.003945  0.001449  0.003974     2.722
   1.40120  0.34633 -0.04849 -1.15093  0.004096  0.001494  0.003723     2.742
   1.41786  0.36298 -0.04803 -1.14707  0.004272  0.001541  0.003415     2.773
   1.43449  0.37961 -0.04745 -1.14288  0.004466  0.001589  0.003095     2.811
   1.45114  0.39623 -0.04673 -1.13821  0.004692  0.001639  0.002736     2.863
   1.46777  0.41285 -0.04588 -1.13295  0.004969  0.001693  0.002317     2.935
   1.48439  0.42943 -0.04489 -1.12742  0.005280  0.001749  0.001902     3.019
   1.50097  0.44597 -0.04378 -1.12148  0.005673  0.001807  0.001432     3.139
   1.51751  0.46247 -0.04253 -1.11553  0.006138  0.001866  0.000970     3.289
   1.53401  0.47892 -0.04112 -1.10973  0.006722  0.001924  0.000502     3.493
   1.55050  0.49532 -0.03957 -1.10449  0.007424  0.001978  0.000094     3.753
   1.56702  0.51176 -0.03785 -1.09996  0.008273  0.002026 -0.000226     4.083
   1.58368  0.52831 -0.03597 -1.09602  0.009267  0.002070 -0.000421     4.477
   1.60055  0.54506 -0.03395 -1.09266  0.010374  0.002110 -0.000500     4.917
   1.61761  0.56199 -0.03181 -1.08991  0.011569  0.002144 -0.000508     5.395
   1.63483  0.57906 -0.02959 -1.08768  0.012816  0.002175 -0.000492     5.893
   1.65218  0.59626 -0.02732 -1.08585  0.014101  0.002201 -0.000469     6.406
   1.66962  0.61355 -0.02500 -1.08433  0.015391  0.002225 -0.000452     6.919
   1.68712  0.63090 -0.02268 -1.08304  0.016659  0.002246 -0.000438     7.418
   1.70462  0.64824 -0.02037 -1.08192  0.017891  0.002265 -0.000427     7.899
   1.72205  0.66552 -0.01809 -1.08091  0.019062  0.002283 -0.000418     8.348
   1.73939  0.68272 -0.01585 -1.08001  0.020174  0.002301 -0.000410     8.769
   1.75663  0.69982 -0.01367 -1.07915  0.021193  0.002317 -0.000404     9.145
   1.77378  0.71684 -0.01156 -1.07834  0.022115  0.002334 -0.000399     9.473
   1.79085  0.73379 -0.00953 -1.07753  0.022923  0.002352 -0.000394     9.747
   1.80784  0.75067 -0.00760 -1.07673  0.023613  0.002370 -0.000389     9.964
   1.82474  0.76746 -0.00576 -1.07591  0.024168  0.002389 -0.000385    10.117
   1.84154  0.78418 -0.00404 -1.07507  0.024581  0.002409 -0.000381    10.204
   1.85823  0.80079 -0.00245 -1.07419  0.024837  0.002430 -0.000378    10.220
   1.87481  0.81731 -0.00100 -1.07326  0.024921  0.002453 -0.000374    10.158
   1.89126  0.83371  0.00030 -1.07226  0.024817  0.002478 -0.000371    10.013
   1.90759  0.85000  0.00143 -1.07119  0.024512  0.002505 -0.000367     9.783
   1.92381  0.86619  0.00238 -1.07001  0.023990  0.002535 -0.000364     9.463
   1.93987  0.88223  0.00314 -1.06873  0.023242  0.002567 -0.000362     9.054
   1.95573  0.89808  0.00370 -1.06730  0.022250  0.002602 -0.000360     8.552
   1.97131  0.91366  0.00404 -1.06572  0.020990  0.002639 -0.000360     7.954
   1.98653  0.92887  0.00415 -1.06395  0.019425  0.002679 -0.000363     7.251
   2.00124  0.94358  0.00401 -1.04324  0.017736  0.003159 -0.000228     5.614
   2.01526  0.95760  0.00361 -1.01852  0.015835  0.003729 -0.000120     4.246
   2.02837  0.97069  0.00296 -0.99937  0.013795  0.004162  0.000364     3.315
   2.04040  0.98268  0.00205 -0.99004  0.011761  0.004366  0.001184     2.694
   2.05125  0.99348  0.00090 -0.99048  0.009891  0.004367  0.002218     2.265
   2.05783  1.00000  0.00000 -0.97809  0.010534  0.004616  0.002024     2.282
   2.05783  1.00010 -0.00002  0.97809  0.089897  0.016570  0.000000     5.425
   2.06446  1.00660 -0.00134  0.97270  0.083265  0.017236  0.000000     4.831
   2.07221  1.01423 -0.00265  0.96657  0.079854  0.017975  0.000000     4.443
   2.08127  1.02318 -0.00403  0.95890  0.076447  0.018892  0.000000     4.047
   2.09186  1.03367 -0.00553  0.94905  0.072920  0.020066  0.000000     3.634
   2.10423  1.04593 -0.00714  0.93779  0.069082  0.021408  0.000000     3.227
   2.11869  1.06029 -0.00889  0.92825  0.064731  0.022543  0.000000     2.871
   2.13560  1.07709 -0.01079  0.92006  0.059942  0.023504  0.000000     2.550
   2.15535  1.09674 -0.01285  0.91404  0.054793  0.024193  0.000000     2.265
   2.17845  1.11972 -0.01509  0.91101  0.049444  0.024528  0.000000     2.016
   2.20544  1.14660 -0.01750  0.91155  0.044127  0.024471  0.000000     1.803
   2.23698  1.17804 -0.02011  0.91580  0.039116  0.024052  0.000000     1.626
   2.27386  1.21480 -0.02292  0.92323  0.034652  0.023372  0.000000     1.483
   2.31695  1.25780 -0.02592  0.93269  0.030887  0.022570  0.000000     1.369
   2.36732  1.30806 -0.02913  0.94286  0.027847  0.021771  0.000000     1.279
   2.42619  1.36684 -0.03254  0.95265  0.025467  0.021053  0.000000     1.210
   2.49501  1.43555 -0.03614  0.96144  0.023636  0.020447  0.000000     1.156
   2.57543  1.51589 -0.03993  0.96900  0.022245  0.019951  0.000000     1.115
   2.66944  1.60981 -0.04389  0.97534  0.021196  0.019552  0.000000     1.084
   2.77931  1.71961 -0.04799  0.98056  0.020412  0.019234  0.000000     1.061
   2.90773  1.84796 -0.05220  0.98479  0.019829  0.018984  0.000000     1.045
   3.05782  1.99799 -0.05650  0.98926  0.019332  0.018724  0.000000     1.032
