#    s        x        y     Ue/Vinf    Dstar     Theta      Cf       H
   0.00000  1.00000  0.00000  0.97745  0.079166  0.011918 -0.000077     6.642
   0.00668  0.99360  0.00192  0.97968  0.075629  0.011687 -0.000079     6.471
   0.01807  0.98272  0.00530  0.98424  0.072752  0.011238 -0.000083     6.474
   0.03106  0.97032  0.00914  0.98983  0.069789  0.010711 -0.000087     6.516
   0.04516  0.95680  0.01317  0.99640  0.066926  0.010121 -0.000093     6.613
   0.06006  0.94246  0.01720  1.00395  0.064249  0.009478 -0.000099     6.778
   0.07565  0.92739  0.02118  1.01256  0.061773  0.008786 -0.000106     7.031
   0.09186  0.91167  0.02516  1.02233  0.059441  0.008043 -0.000115     7.390
   0.10852  0.89549  0.02915  1.03333  0.057187  0.007256 -0.000127     7.881
   0.12544  0.87905  0.03313  1.04565  0.054999  0.006429 -0.000143     8.554
   0.14250  0.86245  0.03708  1.05950  0.052856  0.005562 -0.000164     9.503
   0.15964  0.84577  0.04099  1.07553  0.050722  0.004630 -0.000197    10.954
   0.17681  0.82904  0.04484  1.09453  0.048542  0.003613 -0.000252    13.436
   0.19398  0.81229  0.04864  1.11887  0.046182  0.002419 -0.000275    19.090
   0.21115  0.79553  0.05238  1.13011  0.044164  0.001927 -0.000474    22.924
   0.22833  0.77875  0.05606  1.13020  0.042314  0.001926 -0.000475    21.973
   0.24546  0.76200  0.05967  1.13026  0.040307  0.001927 -0.000476    20.920
   0.26249  0.74535  0.06319  1.13029  0.038211  0.001929 -0.000476    19.810
   0.27941  0.72877  0.06660  1.13030  0.036073  0.001931 -0.000477    18.677
   0.29629  0.71222  0.06990  1.13032  0.033915  0.001934 -0.000478    17.536
   0.31313  0.69568  0.07308  1.13034  0.031749  0.001936 -0.000479    16.395
   0.32994  0.67915  0.07616  1.13038  0.029596  0.001938 -0.000480    15.269
   0.34670  0.66266  0.07911  1.13046  0.027461  0.001939 -0.000482    14.160
   0.36339  0.64620  0.08193  1.13058  0.025362  0.001939 -0.000485    13.078
   0.38005  0.62976  0.08462  1.13078  0.023322  0.001937 -0.000490    12.037
   0.39672  0.61329  0.08718  1.13108  0.021343  0.001934 -0.000495    11.038
   0.41338  0.59681  0.08962  1.13152  0.019420  0.001927 -0.000502    10.076
   0.42997  0.58038  0.09191  1.13214  0.017571  0.001918 -0.000512     9.159
   0.44649  0.56400  0.09406  1.13302  0.015819  0.001906 -0.000525     8.300
   0.46301  0.54760  0.09605  1.13422  0.014170  0.001890 -0.000543     7.499
   0.47954  0.53117  0.09790  1.13585  0.012629  0.001868 -0.000567     6.759
   0.49603  0.51477  0.09961  1.13802  0.011180  0.001842 -0.000600     6.068
   0.51242  0.49845  0.10115  1.14089  0.009864  0.001811 -0.000630     5.448
   0.52875  0.48218  0.10252  1.14463  0.008698  0.001772 -0.000622     4.907
   0.54509  0.46588  0.10371  1.14935  0.007669  0.001728 -0.000513     4.438
   0.56144  0.44957  0.10475  1.15500  0.006763  0.001678 -0.000235     4.030
   0.57774  0.43329  0.10561  1.16160  0.005988  0.001623  0.000228     3.689
   0.59394  0.41711  0.10630  1.16923  0.005327  0.001562  0.000864     3.410
   0.61007  0.40098  0.10679  1.17747  0.004804  0.001498  0.001561     3.206
   0.62617  0.38489  0.10708  1.18590  0.004369  0.001434  0.002308     3.048
   0.64227  0.36879  0.10718  1.19397  0.004018  0.001371  0.003037     2.931
   0.65836  0.35270  0.10708  1.20154  0.003718  0.001311  0.003778     2.837
   0.67432  0.33674  0.10680  1.20861  0.003439  0.001252  0.004619     2.748
   0.69010  0.32097  0.10629  1.21440  0.003207  0.001197  0.005422     2.679
   0.70583  0.30526  0.10554  1.21834  0.003035  0.001149  0.006015     2.641
   0.72167  0.28945  0.10454  1.22118  0.002887  0.001104  0.006524     2.616
   0.73747  0.27369  0.10335  1.22393  0.002721  0.001056  0.007263     2.576
   0.75302  0.25820  0.10195  1.22588  0.002544  0.001008  0.008248     2.523
   0.76841  0.24291  0.10027  1.22482  0.002418  0.000968  0.008915     2.497
   0.78386  0.22758  0.09831  1.22153  0.002328  0.000933  0.009248     2.496
   0.79934  0.21226  0.09610  1.21836  0.002216  0.000894  0.009869     2.479
   0.81467  0.19713  0.09366  1.21390  0.002104  0.000855  0.010556     2.461
   0.82983  0.18221  0.09095  1.20767  0.002001  0.000818  0.011214     2.446
   0.84493  0.16741  0.08797  1.19920  0.001923  0.000784  0.011502     2.453
   0.85995  0.15275  0.08473  1.19093  0.001820  0.000745  0.012195     2.443
   0.87475  0.13836  0.08125  1.18082  0.001723  0.000707  0.012827     2.438
   0.88915  0.12444  0.07757  1.16961  0.001607  0.000666  0.013981     2.413
   0.90314  0.11101  0.07364  1.15430  0.001509  0.000629  0.014886     2.400
   0.91683  0.09797  0.06946  1.13580  0.001441  0.000594  0.014959     2.425
   0.92993  0.08560  0.06517  1.11904  0.001341  0.000553  0.015816     2.426
   0.94206  0.07425  0.06087  1.09999  0.001191  0.000507  0.018905     2.348
   0.95332  0.06387  0.05649  1.06832  0.001138  0.000480  0.018784     2.372
   0.96371  0.05444  0.05215  1.03925  0.001065  0.000447  0.019293     2.384
   0.97301  0.04611  0.04801  1.01080  0.000981  0.000411  0.020363     2.385
   0.98119  0.03891  0.04412  0.97987  0.000884  0.000376  0.022621     2.352
   0.98837  0.03273  0.04046  0.94215  0.000816  0.000348  0.023649     2.348
   0.99470  0.02743  0.03701  0.90157  0.000747  0.000321  0.025130     2.330
   1.00030  0.02288  0.03375  0.85581  0.000689  0.000297  0.026151     2.318
   1.00527  0.01898  0.03066  0.80675  0.000641  0.000276  0.026371     2.324
   1.00973  0.01561  0.02774  0.75484  0.000584  0.000253  0.027506     2.307
   1.01375  0.01272  0.02495  0.69249  0.000532  0.000235  0.028873     2.263
   1.01739  0.01024  0.02228  0.62485  0.000513  0.000221  0.025636     2.319
   1.02073  0.00811  0.01971  0.55366  0.000450  0.000201  0.027967     2.236
   1.02380  0.00630  0.01724  0.46570  0.000442  0.000195  0.023313     2.265
   1.02664  0.00476  0.01485  0.37844  0.000413  0.000185  0.020959     2.229
   1.02926  0.00350  0.01255  0.28924  0.000395  0.000173  0.015837     2.289
   1.03171  0.00246  0.01033  0.18873  0.000341  0.000154  0.012742     2.221
   1.03400  0.00163  0.00819  0.07382  0.000359  0.000161  0.004700     2.230
   1.03618  0.00098  0.00612 -0.02773  0.000359  0.000161  0.001766     2.230
   1.03826  0.00048  0.00410 -0.15409  0.000292  0.000132  0.012211     2.214
   1.04024  0.00015  0.00214 -0.29808  0.000288  0.000128  0.023470     2.240
   1.04215  0.00001  0.00024 -0.44604  0.000275  0.000125  0.037652     2.211
   1.04400  0.00012 -0.00161 -0.61859  0.000254  0.000115  0.057140     2.202
   1.04587  0.00052 -0.00343 -0.76625  0.000279  0.000122  0.059407     2.289
   1.04780  0.00123 -0.00524 -0.89755  0.000288  0.000128  0.070386     2.243
   1.04986  0.00223 -0.00703 -1.00546  0.000325  0.000140  0.065224     2.317
   1.05205  0.00354 -0.00879 -1.07908  0.000371  0.000158  0.059651     2.348
   1.05438  0.00514 -0.01048 -1.13063  0.000423  0.000178  0.053169     2.379
   1.05689  0.00705 -0.01212 -1.16153  0.000491  0.000202  0.044482     2.434
   1.05960  0.00924 -0.01371 -1.17300  0.000582  0.000232  0.034855     2.514
   1.06254  0.01171 -0.01530 -1.18300  0.000642  0.000258  0.032625     2.491
   1.06576  0.01450 -0.01689 -1.19148  0.000711  0.000285  0.029466     2.498
   1.06931  0.01766 -0.01852 -1.19853  0.000780  0.000312  0.026837     2.504
   1.07328  0.02125 -0.02021 -1.20455  0.000852  0.000340  0.024570     2.509
   1.07773  0.02534 -0.02197 -1.21230  0.000912  0.000366  0.023578     2.490
   1.08275  0.03002 -0.02380 -1.22112  0.000974  0.000393  0.022521     2.478
   1.08845  0.03539 -0.02569 -1.22710  0.001062  0.000424  0.020224     2.503
   1.09493  0.04158 -0.02763 -1.23262  0.001147  0.000457  0.018724     2.507
   1.10237  0.04875 -0.02960 -1.23382  0.001270  0.000498  0.016149     2.551
   1.11095  0.05710 -0.03158 -1.23149  0.001412  0.000544  0.013797     2.594
   1.12083  0.06678 -0.03358 -1.22581  0.001581  0.000598  0.011602     2.643
   1.13204  0.07781 -0.03556 -1.21981  0.001736  0.000653  0.010332     2.657
   1.14448  0.09010 -0.03747 -1.21301  0.001906  0.000712  0.009136     2.677
   1.15809  0.10359 -0.03926 -1.20570  0.002085  0.000773  0.008106     2.697
   1.17266  0.11806 -0.04096 -1.19914  0.002248  0.000833  0.007463     2.698
   1.18781  0.13314 -0.04249 -1.19499  0.002364  0.000886  0.007341     2.668
   1.20335  0.14862 -0.04385 -1.19067  0.002510  0.000940  0.006876     2.669
   1.21923  0.16445 -0.04503 -1.18670  0.002651  0.000993  0.006479     2.670
   1.23540  0.18059 -0.04604 -1.18239  0.002807  0.001046  0.006002     2.683
   1.25175  0.19691 -0.04691 -1.17923  0.002925  0.001094  0.005817     2.673
   1.26813  0.21328 -0.04763 -1.17633  0.003044  0.001141  0.005605     2.668
   1.28457  0.22971 -0.04819 -1.17356  0.003165  0.001186  0.005378     2.668
   1.30115  0.24629 -0.04860 -1.17034  0.003306  0.001233  0.005056     2.681
   1.31783  0.26296 -0.04890 -1.16725  0.003439  0.001279  0.004798     2.690
   1.33448  0.27961 -0.04908 -1.16467  0.003551  0.001321  0.004650     2.687
   1.35110  0.29624 -0.04912 -1.16202  0.003670  0.001364  0.004466     2.691
   1.36778  0.31291 -0.04903 -1.15863  0.003825  0.001409  0.004153     2.714
   1.38450  0.32963 -0.04882 -1.15550  0.003962  0.001453  0.003936     2.727
   1.40120  0.34633 -0.04849 -1.15192  0.004122  0.001498  0.003659     2.751
   1.41786  0.36298 -0.04803 -1.14821  0.004286  0.001544  0.003394     2.776
   1.43449  0.37961 -0.04745 -1.14388  0.004489  0.001593  0.003054     2.818
   1.45114  0.39623 -0.04673 -1.13918  0.004715  0.001643  0.002699     2.869
   1.46777  0.41285 -0.04588 -1.13387  0.004995  0.001698  0.002279     2.943
   1.48439  0.42943 -0.04489 -1.12822  0.005323  0.001754  0.001841     3.035
   1.50097  0.44597 -0.04378 -1.12232  0.005712  0.001812  0.001388     3.152
   1.51751  0.46247 -0.04253 -1.11635  0.006188  0.001871  0.000922     3.308
   1.53401  0.47892 -0.04112 -1.11061  0.006771  0.001928  0.000469     3.511
   1.55050  0.49532 -0.03957 -1.10543  0.007482  0.001982  0.000066     3.775
   1.56702  0.51176 -0.03785 -1.10095  0.008341  0.002029 -0.000246     4.110
   1.58368  0.52831 -0.03597 -1.09705  0.009343  0.002073 -0.000431     4.507
   1.60055  0.54506 -0.03395 -1.09374  0.010457  0.002112 -0.000503     4.951
   1.61761  0.56199 -0.03181 -1.09104  0.011656  0.002146 -0.000508     5.430
   1.63483  0.57906 -0.02959 -1.08884  0.012915  0.002176 -0.000491     5.934
   1.65218  0.59626 -0.02732 -1.08705  0.014205  0.002202 -0.000469     6.450
   1.66962  0.61355 -0.02500 -1.08555  0.015499  0.002225 -0.000451     6.965
   1.68712  0.63090 -0.02268 -1.08428  0.016770  0.002246 -0.000437     7.466
   1.70462  0.64824 -0.02037 -1.08317  0.018006  0.002265 -0.000426     7.948
   1.72205  0.66552 -0.01809 -1.08219  0.019183  0.002283 -0.000418     8.401
   1.73939  0.68272 -0.01585 -1.08129  0.020295  0.002300 -0.000411     8.822
   1.75663  0.69982 -0.01367 -1.08045  0.021315  0.002317 -0.000404     9.198
   1.77378  0.71684 -0.01156 -1.07964  0.022235  0.002334 -0.000399     9.526
   1.79085  0.73379 -0.00953 -1.07884  0.023043  0.002351 -0.000394     9.800
   1.80784  0.75067 -0.00760 -1.07804  0.023729  0.002369 -0.000390    10.015
   1.82474  0.76746 -0.00576 -1.07723  0.024282  0.002388 -0.000386    10.168
   1.84154  0.78418 -0.00404 -1.07639  0.024690  0.002408 -0.000382    10.253
   1.85823  0.80079 -0.00245 -1.07552  0.024939  0.002430 -0.000378    10.265
   1.87481  0.81731 -0.00100 -1.07459  0.025016  0.002453 -0.000374    10.199
   1.89126  0.83371  0.00030 -1.07359  0.024903  0.002478 -0.000371    10.051
   1.90759  0.85000  0.00143 -1.07252  0.024586  0.002505 -0.000368     9.815
   1.92381  0.86619  0.00238 -1.07134  0.024049  0.002535 -0.000365     9.488
   1.93987  0.88223  0.00314 -1.07005  0.023285  0.002567 -0.000362     9.072
   1.95573  0.89808  0.00370 -1.06862  0.022270  0.002602 -0.000361     8.560
   1.97131  0.91366  0.00404 -1.06702  0.020981  0.002639 -0.000361     7.950
   1.98653  0.92887  0.00415 -1.06405  0.019391  0.002708 -0.000248     7.160
   2.00124  0.94358  0.00401 -1.03989  0.017692  0.003274 -0.000222     5.404
   2.01526  0.95760  0.00361 -1.01451  0.015765  0.003866 -0.000085     4.078
   2.02837  0.97069  0.00296 -0.99658  0.013703  0.004276  0.000463     3.205
   2.04040  0.98268  0.00205 -0.98837  0.011663  0.004458  0.001307     2.616
   2.05125  0.99348  0.00090 -0.99006  0.009792  0.004435  0.002357     2.208
   2.05783  1.00000  0.00000 -0.97745  0.010436  0.004689  0.002150     2.226
   2.05783  1.00010 -0.00002  0.97745  0.089602  0.016607  0.000000     5.395
   2.06446  1.00660 -0.00134  0.97202  0.082977  0.017276  0.000000     4.803
   2.07221  1.01423 -0.00265  0.96584  0.079570  0.018020  0.000000     4.416
   2.08127  1.02318 -0.00404  0.95810  0.076166  0.018944  0.000000     4.021
   2.09186  1.03367 -0.00553  0.94816  0.072644  0.020128  0.000000     3.609
   2.10423  1.04593 -0.00715  0.93705  0.068800  0.021453  0.000000     3.207
   2.11869  1.06029 -0.00890  0.92760  0.064451  0.022575  0.000000     2.855
   2.13560  1.07708 -0.01080  0.91954  0.059667  0.023519  0.000000     2.537
   2.15535  1.09673 -0.01287  0.91366  0.054529  0.024192  0.000000     2.254
   2.17845  1.11972 -0.01511  0.91077  0.049197  0.024511  0.000000     2.007
   2.20544  1.14660 -0.01753  0.91144  0.043906  0.024440  0.000000     1.796
   2.23698  1.17804 -0.02015  0.91581  0.038923  0.024010  0.000000     1.621
   2.27386  1.21480 -0.02296  0.92331  0.034491  0.023325  0.000000     1.479
   2.31695  1.25779 -0.02598  0.93282  0.030755  0.022522  0.000000     1.366
   2.36732  1.30806 -0.02921  0.94300  0.027740  0.021725  0.000000     1.277
   2.42619  1.36683 -0.03264  0.95278  0.025380  0.021011  0.000000     1.208
   2.49501  1.43554 -0.03627  0.96154  0.023564  0.020407  0.000000     1.155
   2.57543  1.51588 -0.04010  0.96909  0.022184  0.019914  0.000000     1.114
   2.66944  1.60980 -0.04410  0.97541  0.021144  0.019516  0.000000     1.083
   2.77931  1.71959 -0.04825  0.98062  0.020365  0.019200  0.000000     1.061
   2.90773  1.84794 -0.05254  0.98483  0.019787  0.018950  0.000000     1.044
   3.05782  1.99797 -0.05692  0.98929  0.019295  0.018692  0.000000     1.032
