#    s        x        y     Ue/Vinf    Dstar     Theta      Cf       H
   0.00000  1.00000  0.00000  0.99629  0.076610  0.013858 -0.000072     5.528
   0.00668  0.99360  0.00192  0.99833  0.073409  0.013649 -0.000073     5.378
   0.01807  0.98272  0.00530  1.00250  0.070697  0.013236 -0.000076     5.341
   0.03106  0.97032  0.00914  1.00761  0.067873  0.012753 -0.000079     5.322
   0.04516  0.95680  0.01317  1.01360  0.065139  0.012211 -0.000083     5.334
   0.06006  0.94246  0.01720  1.02045  0.062587  0.011621 -0.000088     5.386
   0.07565  0.92739  0.02118  1.02821  0.060240  0.010986 -0.000094     5.483
   0.09186  0.91167  0.02516  1.03693  0.058046  0.010308 -0.000100     5.631
   0.10852  0.89549  0.02915  1.04663  0.055945  0.009593 -0.000108     5.832
   0.12544  0.87905  0.03313  1.05731  0.053931  0.008849 -0.000116     6.095
   0.14250  0.86245  0.03708  1.06903  0.051996  0.008079 -0.000126     6.436
   0.15964  0.84577  0.04099  1.08193  0.050132  0.007283 -0.000138     6.883
   0.17681  0.82904  0.04484  1.09616  0.048325  0.006461 -0.000154     7.480
   0.19398  0.81229  0.04864  1.11199  0.046556  0.005608 -0.000175     8.302
   0.21115  0.79553  0.05238  1.12996  0.044795  0.004709 -0.000207     9.513
   0.22833  0.77875  0.05606  1.15103  0.042984  0.003739 -0.000259    11.495
   0.24546  0.76200  0.05967  1.17697  0.041020  0.002649 -0.000305    15.484
   0.26249  0.74535  0.06319  1.19718  0.039123  0.001891 -0.000514    20.692
   0.27941  0.72877  0.06660  1.19737  0.037569  0.001887 -0.000516    19.906
   0.29629  0.71222  0.06990  1.19751  0.035864  0.001886 -0.000517    19.020
   0.31313  0.69568  0.07308  1.19763  0.034062  0.001885 -0.000519    18.071
   0.32994  0.67915  0.07616  1.19773  0.032198  0.001885 -0.000520    17.085
   0.34670  0.66266  0.07911  1.19784  0.030293  0.001885 -0.000522    16.074
   0.36339  0.64620  0.08193  1.19795  0.028372  0.001884 -0.000524    15.056
   0.38005  0.62976  0.08462  1.19811  0.026461  0.001884 -0.000527    14.049
   0.39672  0.61329  0.08718  1.19831  0.024563  0.001882 -0.000530    13.054
   0.41338  0.59681  0.08962  1.19857  0.022684  0.001879 -0.000535    12.074
   0.42997  0.58038  0.09191  1.19893  0.020831  0.001874 -0.000541    11.114
   0.44649  0.56400  0.09406  1.19942  0.019048  0.001868 -0.000549    10.199
   0.46301  0.54760  0.09605  1.20009  0.017321  0.001859 -0.000559     9.320
   0.47954  0.53117  0.09790  1.20101  0.015668  0.001846 -0.000572     8.486
   0.49603  0.51477  0.09961  1.20223  0.014068  0.001831 -0.000590     7.684
   0.51242  0.49845  0.10115  1.20386  0.012576  0.001811 -0.000615     6.943
   0.52875  0.48218  0.10252  1.20601  0.011193  0.001787 -0.000648     6.263
   0.54509  0.46588  0.10371  1.20887  0.009937  0.001758 -0.000685     5.654
   0.56144  0.44957  0.10475  1.21256  0.008774  0.001722 -0.000696     5.094
   0.57774  0.43329  0.10561  1.21725  0.007728  0.001681 -0.000625     4.597
   0.59394  0.41711  0.10630  1.22295  0.006818  0.001634 -0.000395     4.172
   0.61007  0.40098  0.10679  1.22957  0.006031  0.001584  0.000038     3.808
   0.62617  0.38489  0.10708  1.23727  0.005377  0.001527  0.000635     3.521
   0.64227  0.36879  0.10718  1.24586  0.004833  0.001466  0.001351     3.297
   0.65836  0.35270  0.10708  1.25490  0.004379  0.001403  0.002145     3.121
   0.67432  0.33674  0.10680  1.26414  0.003974  0.001339  0.003075     2.968
   0.69010  0.32097  0.10629  1.27263  0.003651  0.001279  0.003977     2.855
   0.70583  0.30526  0.10554  1.27984  0.003402  0.001224  0.004745     2.780
   0.72167  0.28945  0.10454  1.28551  0.003224  0.001175  0.005262     2.745
   0.73747  0.27369  0.10335  1.29197  0.002994  0.001120  0.006227     2.673
   0.75302  0.25820  0.10195  1.29694  0.002792  0.001070  0.007216     2.610
   0.76841  0.24291  0.10027  1.29952  0.002639  0.001025  0.007972     2.574
   0.78386  0.22758  0.09831  1.29996  0.002531  0.000986  0.008388     2.566
   0.79934  0.21226  0.09610  1.30051  0.002404  0.000945  0.009045     2.545
   0.81467  0.19713  0.09366  1.30020  0.002274  0.000903  0.009833     2.519
   0.82983  0.18221  0.09095  1.29799  0.002166  0.000864  0.010445     2.507
   0.84493  0.16741  0.08797  1.29437  0.002075  0.000827  0.010843     2.509
   0.85995  0.15275  0.08473  1.29094  0.001964  0.000786  0.011561     2.498
   0.87475  0.13836  0.08125  1.28619  0.001860  0.000746  0.012229     2.493
   0.88915  0.12444  0.07757  1.28112  0.001730  0.000702  0.013520     2.463
   0.90314  0.11101  0.07364  1.27228  0.001629  0.000664  0.014373     2.455
   0.91683  0.09797  0.06946  1.26133  0.001558  0.000627  0.014459     2.484
   0.92993  0.08560  0.06517  1.25305  0.001433  0.000582  0.015969     2.463
   0.94206  0.07425  0.06087  1.24154  0.001290  0.000537  0.018696     2.402
   0.95332  0.06387  0.05649  1.22082  0.001217  0.000505  0.019358     2.409
   0.96371  0.05444  0.05215  1.20055  0.001160  0.000473  0.019104     2.452
   0.97301  0.04611  0.04801  1.18517  0.001054  0.000433  0.021219     2.431
   0.98119  0.03891  0.04412  1.16590  0.000961  0.000398  0.023263     2.415
   0.98837  0.03273  0.04046  1.14296  0.000873  0.000365  0.025672     2.392
   0.99470  0.02743  0.03701  1.11513  0.000802  0.000337  0.027620     2.380
   1.00030  0.02288  0.03375  1.08369  0.000736  0.000311  0.029686     2.365
   1.00527  0.01898  0.03066  1.04797  0.000678  0.000288  0.031485     2.354
   1.00973  0.01561  0.02774  1.00784  0.000622  0.000266  0.033581     2.336
   1.01375  0.01272  0.02495  0.96172  0.000575  0.000247  0.035021     2.325
   1.01739  0.01024  0.02228  0.90931  0.000529  0.000230  0.036913     2.299
   1.02073  0.00811  0.01971  0.85114  0.000501  0.000215  0.035571     2.325
   1.02380  0.00630  0.01724  0.78762  0.000448  0.000198  0.039327     2.255
   1.02664  0.00476  0.01485  0.70877  0.000436  0.000191  0.035591     2.278
   1.02926  0.00350  0.01255  0.63484  0.000408  0.000178  0.033456     2.296
   1.03171  0.00246  0.01033  0.54864  0.000368  0.000165  0.034312     2.224
   1.03400  0.00163  0.00819  0.44551  0.000372  0.000167  0.027542     2.223
   1.03618  0.00098  0.00612  0.35782  0.000360  0.000155  0.020932     2.320
   1.03826  0.00048  0.00410  0.25359  0.000299  0.000135  0.019835     2.205
   1.04024  0.00015  0.00214  0.12579  0.000327  0.000146  0.008763     2.233
   1.04215  0.00001  0.00024  0.00564  0.000277  0.000124  0.000464     2.230
   1.04400  0.00012 -0.00161 -0.13993  0.000277  0.000124  0.011549     2.230
   1.04587  0.00052 -0.00343 -0.30354  0.000256  0.000116  0.027519     2.213
   1.04780  0.00123 -0.00524 -0.44045  0.000302  0.000131  0.031069     2.306
   1.04986  0.00223 -0.00703 -0.56391  0.000307  0.000139  0.042461     2.215
   1.05205  0.00354 -0.00879 -0.67393  0.000346  0.000150  0.041762     2.300
   1.05438  0.00514 -0.01048 -0.75544  0.000387  0.000168  0.041709     2.304
   1.05689  0.00705 -0.01212 -0.80923  0.000458  0.000193  0.035205     2.376
   1.05960  0.00924 -0.01371 -0.84986  0.000512  0.000217  0.033514     2.362
   1.06254  0.01171 -0.01530 -0.88341  0.000573  0.000241  0.030628     2.379
   1.06576  0.01450 -0.01689 -0.91376  0.000624  0.000263  0.029269     2.372
   1.06931  0.01766 -0.01852 -0.93944  0.000688  0.000288  0.026780     2.392
   1.07328  0.02125 -0.02021 -0.96365  0.000744  0.000311  0.025529     2.388
   1.07773  0.02534 -0.02197 -0.98627  0.000805  0.000336  0.024002     2.393
   1.08275  0.03002 -0.02380 -1.00944  0.000859  0.000361  0.023231     2.384
   1.08845  0.03539 -0.02569 -1.03053  0.000930  0.000388  0.021610     2.398
   1.09493  0.04158 -0.02763 -1.04819  0.001016  0.000420  0.019684     2.420
   1.10237  0.04875 -0.02960 -1.06299  0.001110  0.000455  0.017928     2.438
   1.11095  0.05710 -0.03158 -1.07175  0.001244  0.000500  0.015332     2.487
   1.12083  0.06678 -0.03358 -1.07712  0.001382  0.000550  0.013472     2.514
   1.13204  0.07781 -0.03556 -1.08265  0.001503  0.000599  0.012532     2.508
   1.14448  0.09010 -0.03747 -1.08552  0.001657  0.000654  0.011092     2.533
   1.15809  0.10359 -0.03926 -1.08627  0.001821  0.000712  0.009840     2.557
   1.17266  0.11806 -0.04096 -1.08799  0.001950  0.000766  0.009322     2.546
   1.18781  0.13314 -0.04249 -1.09098  0.002058  0.000815  0.009044     2.526
   1.20335  0.14862 -0.04385 -1.09291  0.002191  0.000865  0.008443     2.533
   1.21923  0.16445 -0.04503 -1.09442  0.002319  0.000914  0.007946     2.538
   1.23540  0.18059 -0.04604 -1.09447  0.002469  0.000965  0.007301     2.558
   1.25175  0.19691 -0.04691 -1.09575  0.002568  0.001009  0.007122     2.546
   1.26813  0.21328 -0.04763 -1.09676  0.002677  0.001052  0.006849     2.545
   1.28457  0.22971 -0.04819 -1.09714  0.002798  0.001096  0.006500     2.553
   1.30115  0.24629 -0.04860 -1.09741  0.002911  0.001139  0.006216     2.557
   1.31783  0.26296 -0.04890 -1.09721  0.003033  0.001181  0.005903     2.567
   1.33448  0.27961 -0.04908 -1.09763  0.003123  0.001220  0.005773     2.561
   1.35110  0.29624 -0.04912 -1.09733  0.003238  0.001260  0.005510     2.570
   1.36778  0.31291 -0.04903 -1.09653  0.003363  0.001302  0.005220     2.584
   1.38450  0.32963 -0.04882 -1.09567  0.003480  0.001342  0.004986     2.593
   1.40120  0.34633 -0.04849 -1.09458  0.003599  0.001382  0.004759     2.604
   1.41786  0.36298 -0.04803 -1.09294  0.003734  0.001424  0.004484     2.622
   1.43449  0.37961 -0.04745 -1.09079  0.003883  0.001467  0.004182     2.646
   1.45114  0.39623 -0.04673 -1.08802  0.004053  0.001513  0.003846     2.678
   1.46777  0.41285 -0.04588 -1.08449  0.004254  0.001562  0.003458     2.723
   1.48439  0.42943 -0.04489 -1.08044  0.004477  0.001614  0.003064     2.775
   1.50097  0.44597 -0.04378 -1.07569  0.004744  0.001669  0.002626     2.843
   1.51751  0.46247 -0.04253 -1.07033  0.005067  0.001727  0.002150     2.933
   1.53401  0.47892 -0.04112 -1.06433  0.005480  0.001790  0.001614     3.061
   1.55050  0.49532 -0.03957 -1.05811  0.005995  0.001855  0.001066     3.232
   1.56702  0.51176 -0.03785 -1.05208  0.006636  0.001918  0.000539     3.459
   1.58368  0.52831 -0.03597 -1.04668  0.007422  0.001977  0.000087     3.754
   1.60055  0.54506 -0.03395 -1.04209  0.008322  0.002028 -0.000228     4.103
   1.61761  0.56199 -0.03181 -1.03808  0.009320  0.002076 -0.000402     4.490
   1.63483  0.57906 -0.02959 -1.03465  0.010393  0.002118 -0.000470     4.906
   1.65218  0.59626 -0.02732 -1.03180  0.011514  0.002157 -0.000478     5.339
   1.66962  0.61355 -0.02500 -1.02943  0.012672  0.002191 -0.000465     5.785
   1.68712  0.63090 -0.02268 -1.02744  0.013830  0.002221 -0.000445     6.227
   1.70462  0.64824 -0.02037 -1.02574  0.014976  0.002249 -0.000428     6.660
   1.72205  0.66552 -0.01809 -1.02427  0.016096  0.002274 -0.000414     7.079
   1.73939  0.68272 -0.01585 -1.02298  0.017180  0.002297 -0.000403     7.479
   1.75663  0.69982 -0.01367 -1.02181  0.018204  0.002319 -0.000394     7.849
   1.77378  0.71684 -0.01156 -1.02074  0.019155  0.002341 -0.000387     8.184
   1.79085  0.73379 -0.00953 -1.01973  0.020024  0.002362 -0.000380     8.479
   1.80784  0.75067 -0.00760 -1.01876  0.020805  0.002382 -0.000374     8.733
   1.82474  0.76746 -0.00576 -1.01781  0.021485  0.002403 -0.000369     8.939
   1.84154  0.78418 -0.00404 -1.01687  0.022052  0.002425 -0.000364     9.094
   1.85823  0.80079 -0.00245 -1.01593  0.022497  0.002447 -0.000360     9.193
   1.87481  0.81731 -0.00100 -1.01497  0.022808  0.002471 -0.000356     9.232
   1.89126  0.83371  0.00030 -1.01397  0.022969  0.002495 -0.000352     9.206
   1.90759  0.85000  0.00143 -1.01294  0.022972  0.002521 -0.000349     9.113
   1.92381  0.86619  0.00238 -1.01184  0.022806  0.002548 -0.000346     8.949
   1.93987  0.88223  0.00314 -1.01067  0.022472  0.002578 -0.000343     8.718
   1.95573  0.89808  0.00370 -1.00943  0.021957  0.002609 -0.000341     8.417
   1.97131  0.91366  0.00404 -1.00811  0.021260  0.002641 -0.000339     8.049
   1.98653  0.92887  0.00415 -1.00669  0.020369  0.002676 -0.000339     7.613
   2.00124  0.94358  0.00401 -1.00517  0.019297  0.002711 -0.000340     7.118
   2.01526  0.95760  0.00361 -1.00359  0.018072  0.002747 -0.000344     6.579
   2.02837  0.97069  0.00296 -1.00197  0.016732  0.002782 -0.000351     6.015
   2.04040  0.98268  0.00205 -1.00038  0.015344  0.002814 -0.000356     5.453
   2.05125  0.99348  0.00090 -0.99891  0.014017  0.002842 -0.000340     4.932
   2.05783  1.00000  0.00000 -0.99629  0.014672  0.002894 -0.000190     5.070
   2.05783  1.00010 -0.00002  0.99629  0.091282  0.016751  0.000000     5.449
   2.06446  1.00660 -0.00133  0.99151  0.085558  0.017341  0.000000     4.934
   2.07221  1.01424 -0.00263  0.98613  0.082654  0.017991  0.000000     4.594
   2.08127  1.02319 -0.00399  0.97951  0.079731  0.018786  0.000000     4.244
   2.09186  1.03368 -0.00544  0.97118  0.076664  0.019784  0.000000     3.875
   2.10423  1.04595 -0.00700  0.96052  0.073339  0.021063  0.000000     3.482
   2.11869  1.06032 -0.00868  0.94972  0.069560  0.022363  0.000000     3.111
   2.13560  1.07713 -0.01049  0.94029  0.065257  0.023493  0.000000     2.778
   2.15535  1.09679 -0.01242  0.93229  0.060499  0.024440  0.000000     2.475
   2.17845  1.11979 -0.01449  0.92650  0.055386  0.025110  0.000000     2.206
   2.20544  1.14669 -0.01669  0.92365  0.050099  0.025428  0.000000     1.970
   2.23698  1.17815 -0.01902  0.92422  0.044886  0.025368  0.000000     1.769
   2.27386  1.21494 -0.02147  0.92816  0.040015  0.024973  0.000000     1.602
   2.31695  1.25796 -0.02403  0.93483  0.035712  0.024349  0.000000     1.467
   2.36732  1.30826 -0.02667  0.94312  0.032097  0.023627  0.000000     1.358
   2.42619  1.36707 -0.02936  0.95185  0.029179  0.022916  0.000000     1.273
   2.49501  1.43583 -0.03206  0.96015  0.026885  0.022281  0.000000     1.207
   2.57543  1.51621 -0.03473  0.96755  0.025110  0.021744  0.000000     1.155
   2.66944  1.61018 -0.03729  0.97389  0.023751  0.021303  0.000000     1.115
   2.77931  1.72003 -0.03966  0.97921  0.022721  0.020946  0.000000     1.085
   2.90773  1.84843 -0.04174  0.98356  0.021948  0.020663  0.000000     1.062
   3.05782  1.99851 -0.04340  0.98857  0.021270  0.020345  0.000000     1.045
