#    s        x        y     Ue/Vinf    Dstar     Theta      Cf       H
   0.00000  1.00000  0.00000  1.00423  0.088584  0.016143 -0.000062     5.488
   0.00668  0.99360  0.00192  1.00587  0.085523  0.015948 -0.000063     5.363
   0.01807  0.98272  0.00530  1.00918  0.082594  0.015569 -0.000065     5.305
   0.03106  0.97032  0.00914  1.01318  0.079463  0.015127 -0.000067     5.253
   0.04516  0.95680  0.01317  1.01784  0.076352  0.014634 -0.000069     5.217
   0.06006  0.94246  0.01720  1.02312  0.073377  0.014099 -0.000072     5.205
   0.07565  0.92739  0.02118  1.02906  0.070572  0.013523 -0.000076     5.219
   0.09186  0.91167  0.02516  1.03569  0.067895  0.012909 -0.000080     5.259
   0.10852  0.89549  0.02915  1.04301  0.065294  0.012264 -0.000085     5.324
   0.12544  0.87905  0.03313  1.05100  0.062777  0.011594 -0.000091     5.415
   0.14250  0.86245  0.03708  1.05968  0.060347  0.010903 -0.000097     5.535
   0.15964  0.84577  0.04099  1.06910  0.058004  0.010193 -0.000104     5.690
   0.17681  0.82904  0.04484  1.07934  0.055747  0.009465 -0.000112     5.890
   0.19398  0.81229  0.04864  1.09047  0.053571  0.008718 -0.000121     6.145
   0.21115  0.79553  0.05238  1.10265  0.051475  0.007951 -0.000131     6.474
   0.22833  0.77875  0.05606  1.11603  0.049439  0.007161 -0.000144     6.904
   0.24546  0.76200  0.05967  1.13079  0.047452  0.006348 -0.000161     7.476
   0.26249  0.74535  0.06319  1.14719  0.045515  0.005508 -0.000184     8.263
   0.27941  0.72877  0.06660  1.16576  0.043622  0.004629 -0.000218     9.424
   0.29629  0.71222  0.06990  1.18755  0.041724  0.003682 -0.000272    11.332
   0.31313  0.69568  0.07308  1.21447  0.039724  0.002618 -0.000324    15.176
   0.32994  0.67915  0.07616  1.23777  0.037764  0.001797 -0.000558    21.013
   0.34670  0.66266  0.07911  1.23796  0.036184  0.001794 -0.000560    20.170
   0.36339  0.64620  0.08193  1.23811  0.034453  0.001792 -0.000562    19.221
   0.38005  0.62976  0.08462  1.23823  0.032641  0.001792 -0.000564    18.218
   0.39672  0.61329  0.08718  1.23835  0.030769  0.001791 -0.000566    17.175
   0.41338  0.59681  0.08962  1.23847  0.028856  0.001791 -0.000568    16.110
   0.42997  0.58038  0.09191  1.23860  0.026921  0.001791 -0.000570    15.031
   0.44649  0.56400  0.09406  1.23878  0.025000  0.001790 -0.000573    13.967
   0.46301  0.54760  0.09605  1.23901  0.023105  0.001788 -0.000578    12.924
   0.47954  0.53117  0.09790  1.23933  0.021232  0.001784 -0.000583    11.899
   0.49603  0.51477  0.09961  1.23976  0.019384  0.001779 -0.000590    10.895
   0.51242  0.49845  0.10115  1.24035  0.017602  0.001772 -0.000600     9.934
   0.52875  0.48218  0.10252  1.24118  0.015899  0.001762 -0.000613     9.025
   0.54509  0.46588  0.10371  1.24232  0.014283  0.001748 -0.000630     8.172
   0.56144  0.44957  0.10475  1.24385  0.012738  0.001730 -0.000654     7.362
   0.57774  0.43329  0.10561  1.24591  0.011287  0.001708 -0.000686     6.607
   0.59394  0.41711  0.10630  1.24866  0.009943  0.001681 -0.000729     5.915
   0.61007  0.40098  0.10679  1.25230  0.008740  0.001648 -0.000759     5.304
   0.62617  0.38489  0.10708  1.25703  0.007662  0.001609 -0.000725     4.763
   0.64227  0.36879  0.10718  1.26297  0.006719  0.001563 -0.000532     4.299
   0.65836  0.35270  0.10708  1.27000  0.005894  0.001513 -0.000103     3.896
   0.67432  0.33674  0.10680  1.27830  0.005178  0.001456  0.000598     3.555
   0.69010  0.32097  0.10629  1.28770  0.004595  0.001395  0.001478     3.294
   0.70583  0.30526  0.10554  1.29735  0.004160  0.001333  0.002334     3.121
   0.72167  0.28945  0.10454  1.30691  0.003808  0.001272  0.003187     2.994
   0.73747  0.27369  0.10335  1.31656  0.003470  0.001210  0.004245     2.868
   0.75302  0.25820  0.10195  1.32518  0.003189  0.001151  0.005318     2.769
   0.76841  0.24291  0.10027  1.33201  0.002970  0.001099  0.006240     2.703
   0.78386  0.22758  0.09831  1.33673  0.002817  0.001053  0.006823     2.676
   0.79934  0.21226  0.09610  1.34144  0.002649  0.001005  0.007631     2.637
   0.81467  0.19713  0.09366  1.34493  0.002497  0.000959  0.008423     2.605
   0.82983  0.18221  0.09095  1.34709  0.002364  0.000915  0.009142     2.582
   0.84493  0.16741  0.08797  1.34779  0.002255  0.000874  0.009620     2.579
   0.85995  0.15275  0.08473  1.34857  0.002135  0.000831  0.010270     2.570
   0.87475  0.13836  0.08125  1.34905  0.002007  0.000786  0.011142     2.553
   0.88915  0.12444  0.07757  1.34871  0.001869  0.000740  0.012336     2.525
   0.90314  0.11101  0.07364  1.34578  0.001754  0.000698  0.013289     2.513
   0.91683  0.09797  0.06946  1.34085  0.001670  0.000658  0.013546     2.537
   0.92993  0.08560  0.06517  1.33839  0.001538  0.000612  0.015047     2.515
   0.94206  0.07425  0.06087  1.33395  0.001384  0.000565  0.017818     2.451
   0.95332  0.06387  0.05649  1.32120  0.001308  0.000530  0.018364     2.467
   0.96371  0.05444  0.05215  1.30979  0.001238  0.000495  0.018521     2.503
   0.97301  0.04611  0.04801  1.30231  0.001126  0.000454  0.020659     2.484
   0.98119  0.03891  0.04412  1.29200  0.001026  0.000416  0.022920     2.466
   0.98837  0.03273  0.04046  1.27880  0.000937  0.000382  0.025220     2.452
   0.99470  0.02743  0.03701  1.26254  0.000846  0.000350  0.028627     2.415
   1.00030  0.02288  0.03375  1.23989  0.000778  0.000324  0.030929     2.403
   1.00527  0.01898  0.03066  1.21406  0.000715  0.000299  0.033445     2.388
   1.00973  0.01561  0.02774  1.18438  0.000660  0.000277  0.035615     2.381
   1.01375  0.01272  0.02495  1.15058  0.000601  0.000256  0.039210     2.349
   1.01739  0.01024  0.02228  1.10909  0.000560  0.000238  0.040469     2.351
   1.02073  0.00811  0.01971  1.06321  0.000510  0.000220  0.044138     2.314
   1.02380  0.00630  0.01724  1.00612  0.000476  0.000207  0.045195     2.302
   1.02664  0.00476  0.01485  0.94379  0.000448  0.000195  0.045131     2.300
   1.02926  0.00350  0.01255  0.87532  0.000416  0.000183  0.046359     2.271
   1.03171  0.00246  0.01033  0.79657  0.000396  0.000175  0.044690     2.261
   1.03400  0.00163  0.00819  0.71298  0.000381  0.000169  0.041974     2.252
   1.03618  0.00098  0.00612  0.63089  0.000369  0.000161  0.036627     2.300
   1.03826  0.00048  0.00410  0.54150  0.000330  0.000148  0.037659     2.226
   1.04024  0.00015  0.00214  0.43544  0.000325  0.000143  0.029354     2.274
   1.04215  0.00001  0.00024  0.32589  0.000289  0.000129  0.025356     2.247
   1.04400  0.00012 -0.00161  0.18823  0.000272  0.000122  0.015822     2.230
   1.04587  0.00052 -0.00343  0.03552  0.000270  0.000121  0.003004     2.230
   1.04780  0.00123 -0.00524 -0.12472  0.000270  0.000121  0.010569     2.230
   1.04986  0.00223 -0.00703 -0.25525  0.000325  0.000143  0.017210     2.276
   1.05205  0.00354 -0.00879 -0.38067  0.000319  0.000145  0.027943     2.202
   1.05438  0.00514 -0.01048 -0.48813  0.000369  0.000160  0.028168     2.308
   1.05689  0.00705 -0.01212 -0.56289  0.000423  0.000184  0.028512     2.301
   1.05960  0.00924 -0.01371 -0.62272  0.000479  0.000207  0.027322     2.320
   1.06254  0.01171 -0.01530 -0.67396  0.000527  0.000228  0.027031     2.315
   1.06576  0.01450 -0.01689 -0.71870  0.000580  0.000249  0.025848     2.329
   1.06931  0.01766 -0.01852 -0.75738  0.000637  0.000272  0.024521     2.341
   1.07328  0.02125 -0.02021 -0.79415  0.000686  0.000294  0.023998     2.335
   1.07773  0.02534 -0.02197 -0.82887  0.000742  0.000317  0.023015     2.342
   1.08275  0.03002 -0.02380 -0.86297  0.000793  0.000339  0.022474     2.339
   1.08845  0.03539 -0.02569 -0.89337  0.000864  0.000366  0.020902     2.361
   1.09493  0.04158 -0.02763 -0.92210  0.000931  0.000394  0.019968     2.364
   1.10237  0.04875 -0.02960 -0.94473  0.001035  0.000431  0.017705     2.403
   1.11095  0.05710 -0.03158 -0.96221  0.001149  0.000473  0.015796     2.430
   1.12083  0.06678 -0.03358 -0.97665  0.001269  0.000519  0.014297     2.445
   1.13204  0.07781 -0.03556 -0.98987  0.001386  0.000566  0.013240     2.447
   1.14448  0.09010 -0.03747 -0.99983  0.001528  0.000619  0.011857     2.470
   1.15809  0.10359 -0.03926 -1.00805  0.001665  0.000672  0.010873     2.478
   1.17266  0.11806 -0.04096 -1.01565  0.001792  0.000723  0.010189     2.477
   1.18781  0.13314 -0.04249 -1.02396  0.001894  0.000769  0.009878     2.462
   1.20335  0.14862 -0.04385 -1.03062  0.002018  0.000817  0.009246     2.471
   1.21923  0.16445 -0.04503 -1.03617  0.002139  0.000863  0.008704     2.478
   1.23540  0.18059 -0.04604 -1.04045  0.002265  0.000910  0.008155     2.489
   1.25175  0.19691 -0.04691 -1.04514  0.002362  0.000952  0.007917     2.482
   1.26813  0.21328 -0.04763 -1.04924  0.002464  0.000992  0.007612     2.483
   1.28457  0.22971 -0.04819 -1.05304  0.002561  0.001032  0.007348     2.483
   1.30115  0.24629 -0.04860 -1.05573  0.002677  0.001073  0.006960     2.495
   1.31783  0.26296 -0.04890 -1.05853  0.002772  0.001111  0.006736     2.495
   1.33448  0.27961 -0.04908 -1.06126  0.002861  0.001147  0.006555     2.494
   1.35110  0.29624 -0.04912 -1.06361  0.002953  0.001183  0.006348     2.496
   1.36778  0.31291 -0.04903 -1.06526  0.003058  0.001221  0.006076     2.506
   1.38450  0.32963 -0.04882 -1.06674  0.003156  0.001257  0.005857     2.512
   1.40120  0.34633 -0.04849 -1.06816  0.003247  0.001291  0.005687     2.514
   1.41786  0.36298 -0.04803 -1.06891  0.003353  0.001328  0.005446     2.525
   1.43449  0.37961 -0.04745 -1.06934  0.003459  0.001364  0.005218     2.536
   1.45114  0.39623 -0.04673 -1.06908  0.003582  0.001403  0.004941     2.554
   1.46777  0.41285 -0.04588 -1.06814  0.003720  0.001443  0.004630     2.577
   1.48439  0.42943 -0.04489 -1.06682  0.003859  0.001484  0.004343     2.600
   1.50097  0.44597 -0.04378 -1.06467  0.004027  0.001529  0.003993     2.634
   1.51751  0.46247 -0.04253 -1.06181  0.004217  0.001576  0.003619     2.676
   1.53401  0.47892 -0.04112 -1.05792  0.004457  0.001628  0.003163     2.737
   1.55050  0.49532 -0.03957 -1.05322  0.004744  0.001685  0.002672     2.815
   1.56702  0.51176 -0.03785 -1.04765  0.005107  0.001747  0.002121     2.923
   1.58368  0.52831 -0.03597 -1.04152  0.005558  0.001813  0.001548     3.065
   1.60055  0.54506 -0.03395 -1.03540  0.006075  0.001880  0.001028     3.232
   1.61761  0.56199 -0.03181 -1.02960  0.006648  0.001943  0.000589     3.422
   1.63483  0.57906 -0.02959 -1.02430  0.007268  0.002003  0.000241     3.629
   1.65218  0.59626 -0.02732 -1.01954  0.007920  0.002058 -0.000017     3.849
   1.66962  0.61355 -0.02500 -1.01526  0.008590  0.002109 -0.000194     4.073
   1.68712  0.63090 -0.02268 -1.01136  0.009261  0.002158 -0.000306     4.292
   1.70462  0.64824 -0.02037 -1.00778  0.009921  0.002204 -0.000371     4.501
   1.72205  0.66552 -0.01809 -1.00453  0.010564  0.002248 -0.000405     4.699
   1.73939  0.68272 -0.01585 -1.00159  0.011181  0.002290 -0.000419     4.883
   1.75663  0.69982 -0.01367 -0.99889  0.011754  0.002330 -0.000422     5.045
   1.77378  0.71684 -0.01156 -0.99640  0.012277  0.002368 -0.000419     5.185
   1.79085  0.73379 -0.00953 -0.99406  0.012735  0.002405 -0.000413     5.295
   1.80784  0.75067 -0.00760 -0.99184  0.013123  0.002441 -0.000406     5.376
   1.82474  0.76746 -0.00576 -0.98970  0.013436  0.002477 -0.000400     5.425
   1.84154  0.78418 -0.00404 -0.98764  0.013661  0.002512 -0.000393     5.438
   1.85823  0.80079 -0.00245 -0.98560  0.013788  0.002547 -0.000387     5.413
   1.87481  0.81731 -0.00100 -0.98359  0.013811  0.002583 -0.000381     5.347
   1.89126  0.83371  0.00030 -0.98157  0.013713  0.002619 -0.000374     5.237
   1.90759  0.85000  0.00143 -0.97953  0.013490  0.002655 -0.000364     5.082
   1.92381  0.86619  0.00238 -0.97747  0.013134  0.002691 -0.000348     4.881
   1.93987  0.88223  0.00314 -0.97539  0.012650  0.002727 -0.000315     4.638
   1.95573  0.89808  0.00370 -0.97332  0.012032  0.002763 -0.000250     4.355
   1.97131  0.91366  0.00404 -0.97130  0.011285  0.002797 -0.000122     4.035
   1.98653  0.92887  0.00415 -0.96965  0.010409  0.002825  0.000113     3.685
   2.00124  0.94358  0.00401 -0.96925  0.009425  0.002834  0.000503     3.326
   2.01526  0.95760  0.00361 -0.97144  0.008367  0.002807  0.001098     2.981
   2.02837  0.97069  0.00296 -0.97794  0.007264  0.002728  0.001966     2.663
   2.04040  0.98268  0.00205 -0.99077  0.006150  0.002588  0.003209     2.377
   2.05125  0.99348  0.00090 -1.01289  0.005040  0.002377  0.005054     2.120
   2.05783  1.00000  0.00000 -1.00423  0.005538  0.002479  0.004131     2.234
   2.05783  1.00010 -0.00002  1.00423  0.094122  0.018621  0.000000     5.054
   2.06446  1.00660 -0.00133  1.00030  0.089283  0.019129  0.000000     4.667
   2.07221  1.01424 -0.00260  0.99596  0.086858  0.019680  0.000000     4.413
   2.08127  1.02320 -0.00393  0.99067  0.084411  0.020350  0.000000     4.148
   2.09186  1.03369 -0.00534  0.98408  0.081824  0.021182  0.000000     3.863
   2.10423  1.04598 -0.00684  0.97574  0.078989  0.022236  0.000000     3.552
   2.11869  1.06035 -0.00843  0.96625  0.075789  0.023439  0.000000     3.233
   2.13560  1.07717 -0.01012  0.95791  0.072066  0.024496  0.000000     2.942
   2.15535  1.09685 -0.01190  0.95018  0.067872  0.025467  0.000000     2.665
   2.17845  1.11986 -0.01376  0.94366  0.063244  0.026275  0.000000     2.407
   2.20544  1.14678 -0.01571  0.93897  0.058282  0.026843  0.000000     2.171
   2.23698  1.17827 -0.01770  0.93669  0.053156  0.027109  0.000000     1.961
   2.27386  1.21508 -0.01973  0.93716  0.048090  0.027056  0.000000     1.777
   2.31695  1.25813 -0.02175  0.94034  0.043328  0.026721  0.000000     1.622
   2.36732  1.30846 -0.02371  0.94568  0.039072  0.026187  0.000000     1.492
   2.42619  1.36731 -0.02554  0.95234  0.035440  0.025563  0.000000     1.386
   2.49501  1.43610 -0.02717  0.95942  0.032450  0.024938  0.000000     1.301
   2.57543  1.51652 -0.02849  0.96620  0.030049  0.024371  0.000000     1.233
   2.66944  1.61052 -0.02937  0.97230  0.028151  0.023885  0.000000     1.179
   2.77931  1.72039 -0.02967  0.97756  0.026667  0.023481  0.000000     1.136
   2.90773  1.84880 -0.02919  0.98199  0.025520  0.023152  0.000000     1.102
   3.05782  1.99889 -0.02771  0.98795  0.024455  0.022724  0.000000     1.076
