#    s        x        y     Ue/Vinf    Dstar     Theta      Cf       H
   0.00000  1.00000  0.00000  0.98254  0.069766  0.015132 -0.000065     4.611
   0.00668  0.99360  0.00192  0.98458  0.066698  0.014929 -0.000065     4.468
   0.01807  0.98272  0.00530  0.98894  0.064074  0.014509 -0.000066     4.416
   0.03106  0.97032  0.00914  0.99433  0.061351  0.014014 -0.000068     4.378
   0.04516  0.95680  0.01317  1.00071  0.058735  0.013453 -0.000071     4.366
   0.06006  0.94246  0.01720  1.00810  0.056325  0.012836 -0.000076     4.388
   0.07565  0.92739  0.02118  1.01656  0.054147  0.012165 -0.000082     4.451
   0.09186  0.91167  0.02516  1.02616  0.052149  0.011443 -0.000090     4.557
   0.10852  0.89549  0.02915  1.03690  0.050274  0.010679 -0.000099     4.708
   0.12544  0.87905  0.03313  1.04879  0.048511  0.009879 -0.000109     4.910
   0.14250  0.86245  0.03708  1.06192  0.046855  0.009050 -0.000120     5.177
   0.15964  0.84577  0.04099  1.07640  0.045291  0.008191 -0.000131     5.530
   0.17681  0.82904  0.04484  1.09245  0.043805  0.007300 -0.000144     6.000
   0.19398  0.81229  0.04864  1.11037  0.042375  0.006374 -0.000162     6.648
   0.21115  0.79553  0.05238  1.13065  0.040976  0.005403 -0.000187     7.584
   0.22833  0.77875  0.05606  1.15436  0.039544  0.004359 -0.000226     9.072
   0.24546  0.76200  0.05967  1.18322  0.037988  0.003201 -0.000299    11.869
   0.26249  0.74535  0.06319  1.22342  0.036071  0.001724 -0.000321    20.920
   0.27941  0.72877  0.06660  1.21808  0.035010  0.001916 -0.000519    18.273
   0.29629  0.71222  0.06990  1.21832  0.033590  0.001911 -0.000521    17.575
   0.31313  0.69568  0.07308  1.21853  0.032041  0.001908 -0.000523    16.795
   0.32994  0.67915  0.07616  1.21873  0.030406  0.001905 -0.000525    15.961
   0.34670  0.66266  0.07911  1.21892  0.028708  0.001903 -0.000527    15.089
   0.36339  0.64620  0.08193  1.21912  0.026979  0.001900 -0.000529    14.197
   0.38005  0.62976  0.08462  1.21936  0.025241  0.001897 -0.000532    13.303
   0.39672  0.61329  0.08718  1.21965  0.023506  0.001894 -0.000536    12.413
   0.41338  0.59681  0.08962  1.22001  0.021772  0.001889 -0.000541    11.527
   0.42997  0.58038  0.09191  1.22046  0.020056  0.001883 -0.000547    10.653
   0.44649  0.56400  0.09406  1.22105  0.018393  0.001875 -0.000554     9.812
   0.46301  0.54760  0.09605  1.22183  0.016783  0.001864 -0.000564     9.004
   0.47954  0.53117  0.09790  1.22286  0.015228  0.001851 -0.000577     8.229
   0.49603  0.51477  0.09961  1.22419  0.013724  0.001834 -0.000595     7.483
   0.51242  0.49845  0.10115  1.22593  0.012308  0.001814 -0.000618     6.786
   0.52875  0.48218  0.10252  1.22820  0.011005  0.001789 -0.000649     6.152
   0.54509  0.46588  0.10371  1.23116  0.009801  0.001759 -0.000687     5.572
   0.56144  0.44957  0.10475  1.23494  0.008698  0.001724 -0.000706     5.046
   0.57774  0.43329  0.10561  1.23968  0.007690  0.001683 -0.000660     4.570
   0.59394  0.41711  0.10630  1.24541  0.006814  0.001637 -0.000472     4.163
   0.61007  0.40098  0.10679  1.25199  0.006057  0.001587 -0.000095     3.817
   0.62617  0.38489  0.10708  1.25964  0.005411  0.001532  0.000471     3.533
   0.64227  0.36879  0.10718  1.26812  0.004886  0.001472  0.001144     3.319
   0.65836  0.35270  0.10708  1.27717  0.004429  0.001410  0.001944     3.140
   0.67432  0.33674  0.10680  1.28633  0.004033  0.001348  0.002842     2.991
   0.69010  0.32097  0.10629  1.29500  0.003703  0.001288  0.003768     2.874
   0.70583  0.30526  0.10554  1.30213  0.003471  0.001235  0.004456     2.810
   0.72167  0.28945  0.10454  1.30875  0.003257  0.001183  0.005172     2.753
   0.73747  0.27369  0.10335  1.31493  0.003049  0.001132  0.005997     2.694
   0.75302  0.25820  0.10195  1.32054  0.002838  0.001080  0.007034     2.627
   0.76841  0.24291  0.10027  1.32370  0.002681  0.001036  0.007819     2.588
   0.78386  0.22758  0.09831  1.32446  0.002581  0.000998  0.008153     2.587
   0.79934  0.21226  0.09610  1.32617  0.002438  0.000954  0.008959     2.556
   0.81467  0.19713  0.09366  1.32633  0.002311  0.000913  0.009712     2.532
   0.82983  0.18221  0.09095  1.32474  0.002206  0.000874  0.010266     2.523
   0.84493  0.16741  0.08797  1.32228  0.002108  0.000836  0.010757     2.521
   0.85995  0.15275  0.08473  1.31947  0.002005  0.000796  0.011324     2.518
   0.87475  0.13836  0.08125  1.31635  0.001893  0.000755  0.012099     2.508
   0.88915  0.12444  0.07757  1.31269  0.001758  0.000711  0.013492     2.473
   0.90314  0.11101  0.07364  1.30475  0.001669  0.000673  0.014041     2.478
   0.91683  0.09797  0.06946  1.29651  0.001580  0.000634  0.014537     2.492
   0.92993  0.08560  0.06517  1.28927  0.001459  0.000590  0.015926     2.474
   0.94206  0.07425  0.06087  1.27962  0.001318  0.000545  0.018538     2.418
   0.95332  0.06387  0.05649  1.26169  0.001245  0.000512  0.019122     2.430
   0.96371  0.05444  0.05215  1.24474  0.001180  0.000479  0.019188     2.465
   0.97301  0.04611  0.04801  1.23169  0.001075  0.000439  0.021211     2.448
   0.98119  0.03891  0.04412  1.21540  0.000977  0.000403  0.023499     2.427
   0.98837  0.03273  0.04046  1.19518  0.000894  0.000371  0.025549     2.413
   0.99470  0.02743  0.03701  1.17184  0.000819  0.000341  0.027624     2.401
   1.00030  0.02288  0.03375  1.14438  0.000740  0.000314  0.031065     2.360
   1.00527  0.01898  0.03066  1.10947  0.000694  0.000293  0.031650     2.372
   1.00973  0.01561  0.02774  1.07437  0.000635  0.000270  0.034086     2.353
   1.01375  0.01272  0.02495  1.03270  0.000582  0.000250  0.036382     2.331
   1.01739  0.01024  0.02228  0.98335  0.000537  0.000233  0.038214     2.309
   1.02073  0.00811  0.01971  0.92901  0.000508  0.000218  0.037095     2.333
   1.02380  0.00630  0.01724  0.87079  0.000456  0.000200  0.040790     2.277
   1.02664  0.00476  0.01485  0.79800  0.000435  0.000190  0.038591     2.286
   1.02926  0.00350  0.01255  0.72123  0.000404  0.000179  0.038312     2.256
   1.03171  0.00246  0.01033  0.63532  0.000389  0.000173  0.034901     2.255
   1.03400  0.00163  0.00819  0.54950  0.000373  0.000164  0.030519     2.273
   1.03618  0.00098  0.00612  0.45506  0.000346  0.000156  0.028410     2.219
   1.03826  0.00048  0.00410  0.35537  0.000340  0.000149  0.020328     2.293
   1.04024  0.00015  0.00214  0.24652  0.000291  0.000131  0.016613     2.228
   1.04215  0.00001  0.00024  0.11214  0.000294  0.000132  0.005675     2.230
   1.04400  0.00012 -0.00161 -0.01729  0.000294  0.000132  0.004647     2.230
   1.04587  0.00052 -0.00343 -0.17204  0.000256  0.000115  0.018922     2.220
   1.04780  0.00123 -0.00524 -0.32763  0.000281  0.000124  0.028953     2.266
   1.04986  0.00223 -0.00703 -0.45652  0.000310  0.000138  0.035219     2.252
   1.05205  0.00354 -0.00879 -0.56629  0.000343  0.000151  0.038351     2.276
   1.05438  0.00514 -0.01048 -0.65271  0.000386  0.000168  0.037514     2.298
   1.05689  0.00705 -0.01212 -0.72347  0.000428  0.000186  0.037164     2.305
   1.05960  0.00924 -0.01371 -0.76762  0.000512  0.000214  0.029947     2.392
   1.06254  0.01171 -0.01530 -0.80607  0.000554  0.000236  0.030440     2.342
   1.06576  0.01450 -0.01689 -0.84307  0.000604  0.000257  0.028885     2.348
   1.06931  0.01766 -0.01852 -0.87301  0.000670  0.000282  0.026182     2.377
   1.07328  0.02125 -0.02021 -0.89995  0.000729  0.000307  0.024762     2.377
   1.07773  0.02534 -0.02197 -0.92871  0.000773  0.000328  0.024525     2.357
   1.08275  0.03002 -0.02380 -0.95517  0.000838  0.000353  0.022895     2.373
   1.08845  0.03539 -0.02569 -0.97952  0.000905  0.000380  0.021526     2.382
   1.09493  0.04158 -0.02763 -1.00201  0.000979  0.000409  0.020133     2.392
   1.10237  0.04875 -0.02960 -1.01888  0.001085  0.000447  0.017719     2.431
   1.11095  0.05710 -0.03158 -1.03053  0.001210  0.000491  0.015471     2.466
   1.12083  0.06678 -0.03358 -1.03908  0.001340  0.000539  0.013742     2.487
   1.13204  0.07781 -0.03556 -1.04682  0.001464  0.000588  0.012636     2.489
   1.14448  0.09010 -0.03747 -1.05229  0.001609  0.000642  0.011327     2.507
   1.15809  0.10359 -0.03926 -1.05556  0.001765  0.000698  0.010130     2.527
   1.17266  0.11806 -0.04096 -1.05913  0.001895  0.000752  0.009532     2.521
   1.18781  0.13314 -0.04249 -1.06389  0.002001  0.000800  0.009261     2.502
   1.20335  0.14862 -0.04385 -1.06702  0.002137  0.000850  0.008580     2.514
   1.21923  0.16445 -0.04503 -1.06961  0.002265  0.000899  0.008074     2.520
   1.23540  0.18059 -0.04604 -1.07131  0.002397  0.000947  0.007557     2.530
   1.25175  0.19691 -0.04691 -1.07338  0.002505  0.000992  0.007282     2.526
   1.26813  0.21328 -0.04763 -1.07555  0.002606  0.001034  0.007059     2.521
   1.28457  0.22971 -0.04819 -1.07697  0.002721  0.001076  0.006725     2.527
   1.30115  0.24629 -0.04860 -1.07755  0.002848  0.001121  0.006333     2.542
   1.31783  0.26296 -0.04890 -1.07810  0.002962  0.001162  0.006056     2.548
   1.33448  0.27961 -0.04908 -1.07914  0.003051  0.001200  0.005925     2.542
   1.35110  0.29624 -0.04912 -1.07951  0.003160  0.001240  0.005687     2.549
   1.36778  0.31291 -0.04903 -1.07917  0.003285  0.001281  0.005383     2.564
   1.38450  0.32963 -0.04882 -1.07906  0.003389  0.001320  0.005194     2.568
   1.40120  0.34633 -0.04849 -1.07823  0.003515  0.001361  0.004921     2.584
   1.41786  0.36298 -0.04803 -1.07722  0.003637  0.001401  0.004685     2.597
   1.43449  0.37961 -0.04745 -1.07552  0.003782  0.001444  0.004387     2.620
   1.45114  0.39623 -0.04673 -1.07312  0.003947  0.001489  0.004052     2.651
   1.46777  0.41285 -0.04588 -1.07014  0.004130  0.001536  0.003700     2.688
   1.48439  0.42943 -0.04489 -1.06645  0.004345  0.001587  0.003308     2.737
   1.50097  0.44597 -0.04378 -1.06207  0.004593  0.001641  0.002889     2.799
   1.51751  0.46247 -0.04253 -1.05697  0.004896  0.001699  0.002423     2.882
   1.53401  0.47892 -0.04112 -1.05116  0.005278  0.001762  0.001901     2.996
   1.55050  0.49532 -0.03957 -1.04499  0.005755  0.001827  0.001352     3.150
   1.56702  0.51176 -0.03785 -1.03877  0.006361  0.001893  0.000796     3.360
   1.58368  0.52831 -0.03597 -1.03307  0.007099  0.001955  0.000301     3.631
   1.60055  0.54506 -0.03395 -1.02816  0.007957  0.002010 -0.000077     3.958
   1.61761  0.56199 -0.03181 -1.02395  0.008912  0.002060 -0.000315     4.327
   1.63483  0.57906 -0.02959 -1.02024  0.009939  0.002105 -0.000432     4.720
   1.65218  0.59626 -0.02732 -1.01715  0.011024  0.002146 -0.000470     5.136
   1.66962  0.61355 -0.02500 -1.01455  0.012142  0.002183 -0.000468     5.562
   1.68712  0.63090 -0.02268 -1.01236  0.013272  0.002216 -0.000453     5.988
   1.70462  0.64824 -0.02037 -1.01051  0.014392  0.002246 -0.000435     6.408
   1.72205  0.66552 -0.01809 -1.00892  0.015491  0.002273 -0.000420     6.815
   1.73939  0.68272 -0.01585 -1.00752  0.016561  0.002298 -0.000407     7.206
   1.75663  0.69982 -0.01367 -1.00627  0.017575  0.002322 -0.000396     7.569
   1.77378  0.71684 -0.01156 -1.00511  0.018523  0.002345 -0.000388     7.899
   1.79085  0.73379 -0.00953 -1.00405  0.019394  0.002367 -0.000380     8.193
   1.80784  0.75067 -0.00760 -1.00303  0.020182  0.002389 -0.000374     8.449
   1.82474  0.76746 -0.00576 -1.00205  0.020873  0.002411 -0.000368     8.659
   1.84154  0.78418 -0.00404 -1.00107  0.021459  0.002433 -0.000363     8.820
   1.85823  0.80079 -0.00245 -1.00011  0.021926  0.002456 -0.000359     8.929
   1.87481  0.81731 -0.00100 -0.99913  0.022264  0.002479 -0.000354     8.981
   1.89126  0.83371  0.00030 -0.99813  0.022457  0.002504 -0.000351     8.969
   1.90759  0.85000  0.00143 -0.99707  0.022497  0.002530 -0.000347     8.892
   1.92381  0.86619  0.00238 -0.99596  0.022374  0.002558 -0.000344     8.747
   1.93987  0.88223  0.00314 -0.99480  0.022086  0.002587 -0.000342     8.537
   1.95573  0.89808  0.00370 -0.99357  0.021623  0.002618 -0.000340     8.259
   1.97131  0.91366  0.00404 -0.99225  0.020982  0.002651 -0.000340     7.915
   1.98653  0.92887  0.00415 -0.99085  0.020151  0.002685 -0.000341     7.504
   2.00124  0.94358  0.00401 -0.98936  0.019141  0.002720 -0.000344     7.036
   2.01526  0.95760  0.00361 -0.98782  0.017980  0.002756 -0.000350     6.524
   2.02837  0.97069  0.00296 -0.98622  0.016701  0.002791 -0.000353     5.984
   2.04040  0.98268  0.00205 -0.98462  0.015370  0.002824 -0.000334     5.443
   2.05125  0.99348  0.00090 -0.98309  0.014090  0.002853 -0.000250     4.939
   2.05783  1.00000  0.00000 -0.98254  0.014675  0.002863 -0.000147     5.126
   2.05783  1.00010 -0.00002  0.98254  0.084427  0.017963  0.000000     4.700
   2.06446  1.00660 -0.00133  0.97718  0.078950  0.018610  0.000000     4.242
   2.07221  1.01424 -0.00262  0.97110  0.076166  0.019332  0.000000     3.940
   2.08127  1.02319 -0.00398  0.96344  0.073383  0.020237  0.000000     3.626
   2.09186  1.03368 -0.00543  0.95402  0.070478  0.021352  0.000000     3.301
   2.10423  1.04596 -0.00698  0.94610  0.067164  0.022288  0.000000     3.013
   2.11869  1.06032 -0.00864  0.93854  0.063483  0.023175  0.000000     2.739
   2.13560  1.07713 -0.01043  0.93188  0.059424  0.023945  0.000000     2.482
   2.15535  1.09680 -0.01233  0.92672  0.055033  0.024528  0.000000     2.244
   2.17845  1.11980 -0.01437  0.92369  0.050414  0.024857  0.000000     2.028
   2.20544  1.14670 -0.01653  0.92332  0.045736  0.024891  0.000000     1.837
   2.23698  1.17817 -0.01881  0.92581  0.041204  0.024636  0.000000     1.673
   2.27386  1.21496 -0.02119  0.93094  0.037025  0.024146  0.000000     1.533
   2.31695  1.25799 -0.02366  0.93804  0.033357  0.023514  0.000000     1.419
   2.36732  1.30829 -0.02619  0.94619  0.030275  0.022836  0.000000     1.326
   2.42619  1.36711 -0.02874  0.95444  0.027767  0.022191  0.000000     1.251
   2.49501  1.43588 -0.03127  0.96216  0.025772  0.021621  0.000000     1.192
   2.57543  1.51627 -0.03372  0.96900  0.024206  0.021136  0.000000     1.145
   2.66944  1.61024 -0.03601  0.97491  0.022993  0.020732  0.000000     1.109
   2.77931  1.72009 -0.03804  0.97989  0.022063  0.020404  0.000000     1.081
   2.90773  1.84850 -0.03970  0.98400  0.021355  0.020140  0.000000     1.060
   3.05782  1.99859 -0.04086  0.98872  0.020731  0.019845  0.000000     1.045
