#    s        x        y     Ue/Vinf    Dstar     Theta      Cf       H
   0.00000  1.00000  0.00000  0.98804  0.075389  0.013798 -0.000072     5.464
   0.00668  0.99360  0.00192  0.99014  0.072100  0.013584 -0.000073     5.308
   0.01807  0.98272  0.00530  0.99448  0.069369  0.013158 -0.000075     5.272
   0.03106  0.97032  0.00914  0.99981  0.066539  0.012657 -0.000079     5.257
   0.04516  0.95680  0.01317  1.00607  0.063811  0.012096 -0.000083     5.275
   0.06006  0.94246  0.01720  1.01326  0.061278  0.011484 -0.000088     5.336
   0.07565  0.92739  0.02118  1.02143  0.058958  0.010823 -0.000094     5.448
   0.09186  0.91167  0.02516  1.03065  0.056799  0.010115 -0.000102     5.615
   0.10852  0.89549  0.02915  1.04095  0.054739  0.009368 -0.000110     5.843
   0.12544  0.87905  0.03313  1.05234  0.052770  0.008589 -0.000119     6.144
   0.14250  0.86245  0.03708  1.06492  0.050883  0.007779 -0.000129     6.541
   0.15964  0.84577  0.04099  1.07885  0.049066  0.006939 -0.000143     7.071
   0.17681  0.82904  0.04484  1.09436  0.047299  0.006066 -0.000162     7.798
   0.19398  0.81229  0.04864  1.11182  0.045556  0.005153 -0.000188     8.841
   0.21115  0.79553  0.05238  1.13225  0.043791  0.004167 -0.000231    10.508
   0.22833  0.77875  0.05606  1.15704  0.041915  0.003075 -0.000294    13.633
   0.24546  0.76200  0.05967  1.18636  0.039842  0.001910 -0.000504    20.859
   0.26249  0.74535  0.06319  1.18656  0.038352  0.001906 -0.000506    20.124
   0.27941  0.72877  0.06660  1.18671  0.036688  0.001904 -0.000507    19.273
   0.29629  0.71222  0.06990  1.18683  0.034913  0.001903 -0.000509    18.351
   0.31313  0.69568  0.07308  1.18694  0.033064  0.001902 -0.000510    17.381
   0.32994  0.67915  0.07616  1.18704  0.031170  0.001902 -0.000512    16.387
   0.34670  0.66266  0.07911  1.18715  0.029248  0.001902 -0.000514    15.377
   0.36339  0.64620  0.08193  1.18729  0.027319  0.001902 -0.000516    14.367
   0.38005  0.62976  0.08462  1.18746  0.025411  0.001900 -0.000519    13.373
   0.39672  0.61329  0.08718  1.18770  0.023528  0.001897 -0.000524    12.400
   0.41338  0.59681  0.08962  1.18802  0.021664  0.001894 -0.000529    11.441
   0.42997  0.58038  0.09191  1.18845  0.019840  0.001888 -0.000536    10.509
   0.44649  0.56400  0.09406  1.18904  0.018086  0.001880 -0.000545     9.622
   0.46301  0.54760  0.09605  1.18984  0.016401  0.001869 -0.000557     8.777
   0.47954  0.53117  0.09790  1.19093  0.014794  0.001854 -0.000572     7.978
   0.49603  0.51477  0.09961  1.19236  0.013244  0.001836 -0.000594     7.212
   0.51242  0.49845  0.10115  1.19427  0.011816  0.001814 -0.000623     6.513
   0.52875  0.48218  0.10252  1.19679  0.010494  0.001787 -0.000659     5.873
   0.54509  0.46588  0.10371  1.20008  0.009302  0.001754 -0.000683     5.304
   0.56144  0.44957  0.10475  1.20428  0.008211  0.001715 -0.000657     4.789
   0.57774  0.43329  0.10561  1.20951  0.007246  0.001670 -0.000503     4.339
   0.59394  0.41711  0.10630  1.21563  0.006397  0.001621 -0.000158     3.947
   0.61007  0.40098  0.10679  1.22276  0.005691  0.001567  0.000361     3.633
   0.62617  0.38489  0.10708  1.23087  0.005098  0.001507  0.001024     3.383
   0.64227  0.36879  0.10718  1.23956  0.004616  0.001445  0.001749     3.195
   0.65836  0.35270  0.10708  1.24857  0.004195  0.001381  0.002579     3.037
   0.67432  0.33674  0.10680  1.25736  0.003834  0.001319  0.003471     2.907
   0.69010  0.32097  0.10629  1.26520  0.003545  0.001261  0.004314     2.812
   0.70583  0.30526  0.10554  1.27183  0.003315  0.001207  0.005056     2.746
   0.72167  0.28945  0.10454  1.27711  0.003135  0.001158  0.005634     2.708
   0.73747  0.27369  0.10335  1.28257  0.002929  0.001106  0.006505     2.648
   0.75302  0.25820  0.10195  1.28680  0.002739  0.001057  0.007457     2.592
   0.76841  0.24291  0.10027  1.28877  0.002590  0.001013  0.008219     2.556
   0.78386  0.22758  0.09831  1.28842  0.002488  0.000975  0.008605     2.551
   0.79934  0.21226  0.09610  1.28831  0.002362  0.000934  0.009285     2.529
   0.81467  0.19713  0.09366  1.28698  0.002242  0.000894  0.009983     2.509
   0.82983  0.18221  0.09095  1.28426  0.002130  0.000855  0.010674     2.492
   0.84493  0.16741  0.08797  1.27957  0.002045  0.000819  0.011013     2.498
   0.85995  0.15275  0.08473  1.27525  0.001936  0.000778  0.011713     2.488
   0.87475  0.13836  0.08125  1.26959  0.001834  0.000739  0.012364     2.484
   0.88915  0.12444  0.07757  1.26362  0.001704  0.000695  0.013714     2.451
   0.90314  0.11101  0.07364  1.25335  0.001609  0.000657  0.014452     2.447
   0.91683  0.09797  0.06946  1.24147  0.001532  0.000620  0.014703     2.469
   0.92993  0.08560  0.06517  1.23127  0.001418  0.000577  0.015923     2.459
   0.94206  0.07425  0.06087  1.21889  0.001270  0.000531  0.018870     2.390
   0.95332  0.06387  0.05649  1.19605  0.001204  0.000501  0.019233     2.405
   0.96371  0.05444  0.05215  1.17471  0.001137  0.000468  0.019472     2.432
   0.97301  0.04611  0.04801  1.15624  0.001044  0.000430  0.020928     2.429
   0.98119  0.03891  0.04412  1.13591  0.000944  0.000393  0.023425     2.400
   0.98837  0.03273  0.04046  1.10976  0.000860  0.000362  0.025672     2.377
   0.99470  0.02743  0.03701  1.07938  0.000799  0.000335  0.026703     2.384
   1.00030  0.02288  0.03375  1.04793  0.000726  0.000308  0.029195     2.361
   1.00527  0.01898  0.03066  1.00941  0.000661  0.000284  0.031842     2.329
   1.00973  0.01561  0.02774  0.96373  0.000618  0.000265  0.032507     2.330
   1.01375  0.01272  0.02495  0.91601  0.000572  0.000246  0.033570     2.323
   1.01739  0.01024  0.02228  0.86343  0.000527  0.000228  0.034765     2.311
   1.02073  0.00811  0.01971  0.80181  0.000483  0.000212  0.036426     2.275
   1.02380  0.00630  0.01724  0.73348  0.000463  0.000200  0.033565     2.313
   1.02664  0.00476  0.01485  0.65873  0.000412  0.000185  0.036730     2.224
   1.02926  0.00350  0.01255  0.57321  0.000415  0.000179  0.029254     2.313
   1.03171  0.00246  0.01033  0.48901  0.000363  0.000164  0.031162     2.217
   1.03400  0.00163  0.00819  0.38367  0.000373  0.000167  0.023621     2.226
   1.03618  0.00098  0.00612  0.29248  0.000361  0.000158  0.017647     2.281
   1.03826  0.00048  0.00410  0.19064  0.000307  0.000137  0.014087     2.238
   1.04024  0.00015  0.00214  0.05849  0.000290  0.000130  0.004617     2.230
   1.04215  0.00001  0.00024 -0.07831  0.000290  0.000130  0.006182     2.230
   1.04400  0.00012 -0.00161 -0.22226  0.000273  0.000123  0.018743     2.220
   1.04587  0.00052 -0.00343 -0.37399  0.000272  0.000122  0.031270     2.234
   1.04780  0.00123 -0.00524 -0.51982  0.000284  0.000126  0.041248     2.246
   1.04986  0.00223 -0.00703 -0.63603  0.000324  0.000141  0.042246     2.297
   1.05205  0.00354 -0.00879 -0.73952  0.000342  0.000152  0.048231     2.257
   1.05438  0.00514 -0.01048 -0.81457  0.000402  0.000171  0.041342     2.351
   1.05689  0.00705 -0.01212 -0.87091  0.000446  0.000191  0.040642     2.332
   1.05960  0.00924 -0.01371 -0.90551  0.000530  0.000219  0.032610     2.419
   1.06254  0.01171 -0.01530 -0.93339  0.000583  0.000244  0.031367     2.393
   1.06576  0.01450 -0.01689 -0.96008  0.000637  0.000267  0.029619     2.390
   1.06931  0.01766 -0.01852 -0.98219  0.000703  0.000292  0.026914     2.409
   1.07328  0.02125 -0.02021 -1.00354  0.000759  0.000316  0.025696     2.401
   1.07773  0.02534 -0.02197 -1.02345  0.000822  0.000342  0.024051     2.407
   1.08275  0.03002 -0.02380 -1.04449  0.000875  0.000366  0.023369     2.394
   1.08845  0.03539 -0.02569 -1.06320  0.000949  0.000393  0.021580     2.411
   1.09493  0.04158 -0.02763 -1.07914  0.001032  0.000425  0.019762     2.429
   1.10237  0.04875 -0.02960 -1.09105  0.001137  0.000462  0.017588     2.459
   1.11095  0.05710 -0.03158 -1.09889  0.001260  0.000506  0.015438     2.492
   1.12083  0.06678 -0.03358 -1.10160  0.001417  0.000558  0.013074     2.540
   1.13204  0.07781 -0.03556 -1.10517  0.001536  0.000608  0.012250     2.528
   1.14448  0.09010 -0.03747 -1.10624  0.001694  0.000663  0.010808     2.554
   1.15809  0.10359 -0.03926 -1.10628  0.001849  0.000720  0.009759     2.567
   1.17266  0.11806 -0.04096 -1.10664  0.001988  0.000775  0.009112     2.564
   1.18781  0.13314 -0.04249 -1.10785  0.002109  0.000826  0.008714     2.552
   1.20335  0.14862 -0.04385 -1.10880  0.002237  0.000877  0.008223     2.552
   1.21923  0.16445 -0.04503 -1.10945  0.002365  0.000926  0.007755     2.555
   1.23540  0.18059 -0.04604 -1.10863  0.002519  0.000978  0.007102     2.577
   1.25175  0.19691 -0.04691 -1.10966  0.002608  0.001021  0.007025     2.556
   1.26813  0.21328 -0.04763 -1.10961  0.002734  0.001066  0.006638     2.565
   1.28457  0.22971 -0.04819 -1.10977  0.002844  0.001109  0.006384     2.564
   1.30115  0.24629 -0.04860 -1.10930  0.002968  0.001153  0.006043     2.575
   1.31783  0.26296 -0.04890 -1.10844  0.003096  0.001197  0.005714     2.586
   1.33448  0.27961 -0.04908 -1.10844  0.003185  0.001235  0.005609     2.578
   1.35110  0.29624 -0.04912 -1.10757  0.003306  0.001277  0.005331     2.589
   1.36778  0.31291 -0.04903 -1.10651  0.003426  0.001318  0.005077     2.600
   1.38450  0.32963 -0.04882 -1.10525  0.003547  0.001359  0.004840     2.610
   1.40120  0.34633 -0.04849 -1.10372  0.003673  0.001400  0.004597     2.623
   1.41786  0.36298 -0.04803 -1.10167  0.003814  0.001443  0.004315     2.644
   1.43449  0.37961 -0.04745 -1.09905  0.003974  0.001488  0.003995     2.672
   1.45114  0.39623 -0.04673 -1.09603  0.004145  0.001533  0.003677     2.703
   1.46777  0.41285 -0.04588 -1.09202  0.004366  0.001585  0.003256     2.755
   1.48439  0.42943 -0.04489 -1.08770  0.004598  0.001637  0.002867     2.810
   1.50097  0.44597 -0.04378 -1.08268  0.004881  0.001692  0.002425     2.884
   1.51751  0.46247 -0.04253 -1.07698  0.005239  0.001753  0.001922     2.989
   1.53401  0.47892 -0.04112 -1.07092  0.005675  0.001815  0.001400     3.126
   1.55050  0.49532 -0.03957 -1.06477  0.006220  0.001879  0.000869     3.310
   1.56702  0.51176 -0.03785 -1.05895  0.006906  0.001940  0.000365     3.559
   1.58368  0.52831 -0.03597 -1.05386  0.007733  0.001996 -0.000044     3.875
   1.60055  0.54506 -0.03395 -1.04953  0.008679  0.002045 -0.000312     4.245
   1.61761  0.56199 -0.03181 -1.04573  0.009720  0.002090 -0.000444     4.651
   1.63483  0.57906 -0.02959 -1.04256  0.010835  0.002130 -0.000483     5.086
   1.65218  0.59626 -0.02732 -1.03993  0.011997  0.002166 -0.000480     5.539
   1.66962  0.61355 -0.02500 -1.03776  0.013194  0.002198 -0.000461     6.004
   1.68712  0.63090 -0.02268 -1.03593  0.014381  0.002226 -0.000441     6.461
   1.70462  0.64824 -0.02037 -1.03437  0.015558  0.002252 -0.000426     6.909
   1.72205  0.66552 -0.01809 -1.03302  0.016701  0.002275 -0.000413     7.340
   1.73939  0.68272 -0.01585 -1.03183  0.017802  0.002297 -0.000403     7.750
   1.75663  0.69982 -0.01367 -1.03075  0.018841  0.002318 -0.000395     8.128
   1.77378  0.71684 -0.01156 -1.02974  0.019801  0.002338 -0.000388     8.468
   1.79085  0.73379 -0.00953 -1.02879  0.020675  0.002358 -0.000381     8.768
   1.80784  0.75067 -0.00760 -1.02787  0.021455  0.002378 -0.000376     9.022
   1.82474  0.76746 -0.00576 -1.02697  0.022127  0.002399 -0.000371     9.225
   1.84154  0.78418 -0.00404 -1.02607  0.022684  0.002419 -0.000367     9.376
   1.85823  0.80079 -0.00245 -1.02516  0.023111  0.002441 -0.000363     9.467
   1.87481  0.81731 -0.00100 -1.02422  0.023398  0.002464 -0.000359     9.495
   1.89126  0.83371  0.00030 -1.02325  0.023529  0.002488 -0.000355     9.456
   1.90759  0.85000  0.00143 -1.02222  0.023495  0.002514 -0.000352     9.345
   1.92381  0.86619  0.00238 -1.02114  0.023285  0.002542 -0.000349     9.161
   1.93987  0.88223  0.00314 -1.01998  0.022899  0.002571 -0.000346     8.907
   1.95573  0.89808  0.00370 -1.01874  0.022324  0.002602 -0.000344     8.579
   1.97131  0.91366  0.00404 -1.01740  0.021555  0.002635 -0.000342     8.179
   1.98653  0.92887  0.00415 -1.01596  0.020583  0.002670 -0.000342     7.708
   2.00124  0.94358  0.00401 -1.01441  0.019418  0.002706 -0.000343     7.175
   2.01526  0.95760  0.00361 -1.01278  0.018086  0.002743 -0.000348     6.594
   2.02837  0.97069  0.00296 -1.01111  0.016622  0.002779 -0.000356     5.982
   2.04040  0.98268  0.00205 -1.00946  0.015087  0.002812 -0.000359     5.366
   2.05125  0.99348  0.00090 -0.99541  0.013705  0.003096 -0.000136     4.427
   2.05783  1.00000  0.00000 -0.98804  0.014376  0.003247 -0.000135     4.428
   2.05783  1.00010 -0.00002  0.98804  0.089765  0.017045  0.000000     5.267
   2.06446  1.00660 -0.00133  0.98294  0.083740  0.017674  0.000000     4.738
   2.07221  1.01424 -0.00263  0.97717  0.080672  0.018370  0.000000     4.391
   2.08127  1.02319 -0.00400  0.96999  0.077601  0.019230  0.000000     4.035
   2.09186  1.03368 -0.00546  0.96087  0.074409  0.020323  0.000000     3.661
   2.10423  1.04595 -0.00703  0.95000  0.070940  0.021628  0.000000     3.280
   2.11869  1.06031 -0.00872  0.94062  0.066967  0.022753  0.000000     2.943
   2.13560  1.07712 -0.01054  0.93219  0.062549  0.023755  0.000000     2.633
   2.15535  1.09678 -0.01250  0.92543  0.057735  0.024544  0.000000     2.352
   2.17845  1.11977 -0.01460  0.92109  0.052642  0.025037  0.000000     2.103
   2.20544  1.14667 -0.01685  0.91981  0.047463  0.025176  0.000000     1.885
   2.23698  1.17813 -0.01923  0.92191  0.042446  0.024959  0.000000     1.701
   2.27386  1.21491 -0.02175  0.92718  0.037839  0.024449  0.000000     1.548
   2.31695  1.25793 -0.02439  0.93481  0.033829  0.023761  0.000000     1.424
   2.36732  1.30822 -0.02714  0.94366  0.030501  0.023018  0.000000     1.325
   2.42619  1.36703 -0.02998  0.95262  0.027835  0.022314  0.000000     1.247
   2.49501  1.43578 -0.03286  0.96095  0.025746  0.021698  0.000000     1.187
   2.57543  1.51615 -0.03574  0.96828  0.024134  0.021183  0.000000     1.139
   2.66944  1.61011 -0.03857  0.97454  0.022902  0.020761  0.000000     1.103
   2.77931  1.71995 -0.04127  0.97975  0.021971  0.020422  0.000000     1.076
   2.90773  1.84835 -0.04376  0.98402  0.021272  0.020152  0.000000     1.056
   3.05782  1.99843 -0.04594  0.98880  0.020663  0.019856  0.000000     1.041
