#    s        x        y     Ue/Vinf    Dstar     Theta      Cf       H
   0.00000  1.00000  0.00000  1.03220  0.103451  0.014431 -0.000060     7.169
   0.00668  0.99360  0.00192  1.03383  0.100204  0.014224 -0.000061     7.045
   0.01807  0.98272  0.00530  1.03688  0.097129  0.013845 -0.000063     7.015
   0.03106  0.97032  0.00914  1.04052  0.093828  0.013409 -0.000065     6.997
   0.04516  0.95680  0.01317  1.04465  0.090514  0.012932 -0.000068     6.999
   0.06006  0.94246  0.01720  1.04920  0.087298  0.012424 -0.000071     7.027
   0.07565  0.92739  0.02118  1.05418  0.084208  0.011890 -0.000076     7.082
   0.09186  0.91167  0.02516  1.05962  0.081197  0.011329 -0.000081     7.167
   0.10852  0.89549  0.02915  1.06548  0.078217  0.010749 -0.000088     7.277
   0.12544  0.87905  0.03313  1.07174  0.075273  0.010156 -0.000095     7.412
   0.14250  0.86245  0.03708  1.07839  0.072373  0.009552 -0.000103     7.576
   0.15964  0.84577  0.04099  1.08546  0.069520  0.008940 -0.000112     7.776
   0.17681  0.82904  0.04484  1.09296  0.066713  0.008319 -0.000122     8.019
   0.19398  0.81229  0.04864  1.10093  0.063953  0.007691 -0.000134     8.315
   0.21115  0.79553  0.05238  1.10941  0.061242  0.007054 -0.000147     8.682
   0.22833  0.77875  0.05606  1.11845  0.058566  0.006407 -0.000166     9.141
   0.24546  0.76200  0.05967  1.12805  0.055925  0.005753 -0.000191     9.721
   0.26249  0.74535  0.06319  1.13818  0.053337  0.005094 -0.000230    10.470
   0.27941  0.72877  0.06660  1.14904  0.050812  0.004419 -0.000301    11.499
   0.29629  0.71222  0.06990  1.16034  0.048359  0.003735 -0.000332    12.946
   0.31313  0.69568  0.07308  1.17086  0.046194  0.003163 -0.000554    14.606
   0.32994  0.67915  0.07616  1.21028  0.043167  0.001732 -0.000556    24.927
   0.34670  0.66266  0.07911  1.21032  0.041191  0.001733 -0.000558    23.774
   0.36339  0.64620  0.08193  1.21032  0.039083  0.001735 -0.000559    22.525
   0.38005  0.62976  0.08462  1.21029  0.036904  0.001738 -0.000561    21.228
   0.39672  0.61329  0.08718  1.21026  0.034692  0.001742 -0.000564    19.914
   0.41338  0.59681  0.08962  1.21021  0.032450  0.001746 -0.000567    18.586
   0.42997  0.58038  0.09191  1.21016  0.030204  0.001750 -0.000570    17.263
   0.44649  0.56400  0.09406  1.21014  0.027992  0.001753 -0.000575    15.972
   0.46301  0.54760  0.09605  1.21015  0.025816  0.001755 -0.000581    14.714
   0.47954  0.53117  0.09790  1.21022  0.023677  0.001755 -0.000589    13.489
   0.49603  0.51477  0.09961  1.21036  0.021573  0.001754 -0.000600    12.296
   0.51242  0.49845  0.10115  1.21061  0.019543  0.001752 -0.000615    11.157
   0.52875  0.48218  0.10252  1.21105  0.017613  0.001746 -0.000634    10.089
   0.54509  0.46588  0.10371  1.21172  0.015772  0.001737 -0.000661     9.082
   0.56144  0.44957  0.10475  1.21271  0.014018  0.001724 -0.000698     8.132
   0.57774  0.43329  0.10561  1.21413  0.012365  0.001706 -0.000740     7.247
   0.59394  0.41711  0.10630  1.21616  0.010843  0.001683 -0.000750     6.441
   0.61007  0.40098  0.10679  1.21902  0.009466  0.001654 -0.000662     5.721
   0.62617  0.38489  0.10708  1.22298  0.008234  0.001618 -0.000385     5.088
   0.64227  0.36879  0.10718  1.22842  0.007153  0.001574  0.000135     4.545
   0.65836  0.35270  0.10708  1.23487  0.006206  0.001525  0.000896     4.068
   0.67432  0.33674  0.10680  1.24279  0.005393  0.001470  0.001778     3.670
   0.69010  0.32097  0.10629  1.25217  0.004743  0.001407  0.002662     3.372
   0.70583  0.30526  0.10554  1.26227  0.004240  0.001341  0.003451     3.161
   0.72167  0.28945  0.10454  1.27217  0.003859  0.001277  0.004468     3.021
   0.73747  0.27369  0.10335  1.28220  0.003498  0.001213  0.005590     2.884
   0.75302  0.25820  0.10195  1.29136  0.003186  0.001151  0.006447     2.769
   0.76841  0.24291  0.10027  1.29822  0.002962  0.001097  0.007021     2.701
   0.78386  0.22758  0.09831  1.30307  0.002799  0.001049  0.007793     2.669
   0.79934  0.21226  0.09610  1.30760  0.002627  0.001000  0.008556     2.628
   0.81467  0.19713  0.09366  1.31079  0.002474  0.000953  0.009272     2.596
   0.82983  0.18221  0.09095  1.31267  0.002335  0.000909  0.009721     2.570
   0.84493  0.16741  0.08797  1.31280  0.002227  0.000867  0.010472     2.568
   0.85995  0.15275  0.08473  1.31317  0.002098  0.000823  0.011216     2.551
   0.87475  0.13836  0.08125  1.31234  0.001977  0.000779  0.012445     2.540
   0.88915  0.12444  0.07757  1.31110  0.001838  0.000733  0.013406     2.509
   0.90314  0.11101  0.07364  1.30693  0.001723  0.000690  0.013651     2.496
   0.91683  0.09797  0.06946  1.30053  0.001638  0.000651  0.015277     2.518
   0.92993  0.08560  0.06517  1.29636  0.001504  0.000604  0.017740     2.492
   0.94206  0.07425  0.06087  1.28928  0.001362  0.000558  0.018533     2.440
   0.95332  0.06387  0.05649  1.27495  0.001279  0.000523  0.018509     2.445
   0.96371  0.05444  0.05215  1.26066  0.001214  0.000489  0.020771     2.486
   0.97301  0.04611  0.04801  1.25084  0.001101  0.000447  0.023167     2.462
   0.98119  0.03891  0.04412  1.23733  0.001001  0.000410  0.025635     2.441
   0.98837  0.03273  0.04046  1.22013  0.000913  0.000377  0.027967     2.423
   0.99470  0.02743  0.03701  1.19936  0.000837  0.000347  0.031241     2.411
   1.00030  0.02288  0.03375  1.17504  0.000759  0.000319  0.032404     2.378
   1.00527  0.01898  0.03066  1.14494  0.000711  0.000297  0.036759     2.395
   1.00973  0.01561  0.02774  1.11430  0.000637  0.000272  0.038716     2.346
   1.01375  0.01272  0.02495  1.07290  0.000593  0.000253  0.040130     2.339
   1.01739  0.01024  0.02228  1.02838  0.000552  0.000236  0.043913     2.342
   1.02073  0.00811  0.01971  0.97871  0.000501  0.000218  0.043810     2.298
   1.02380  0.00630  0.01724  0.91791  0.000474  0.000205  0.046117     2.310
   1.02664  0.00476  0.01485  0.85280  0.000435  0.000191  0.044089     2.271
   1.02926  0.00350  0.01255  0.77834  0.000417  0.000182  0.045844     2.293
   1.03171  0.00246  0.01033  0.69774  0.000382  0.000172  0.039055     2.224
   1.03400  0.00163  0.00819  0.60754  0.000386  0.000169  0.037848     2.281
   1.03618  0.00098  0.00612  0.52334  0.000355  0.000158  0.033179     2.244
   1.03826  0.00048  0.00410  0.42872  0.000338  0.000148  0.031504     2.282
   1.04024  0.00015  0.00214  0.32076  0.000303  0.000137  0.021268     2.218
   1.04215  0.00001  0.00024  0.19456  0.000309  0.000139  0.015398     2.224
   1.04400  0.00012 -0.00161  0.06579  0.000252  0.000109  0.000548     2.302
   1.04587  0.00052 -0.00343 -0.10229  0.000295  0.000132  0.010503     2.230
   1.04780  0.00123 -0.00524 -0.23626  0.000295  0.000132  0.022161     2.230
   1.04986  0.00223 -0.00703 -0.37804  0.000295  0.000132  0.025681     2.230
   1.05205  0.00354 -0.00879 -0.49382  0.000341  0.000148  0.031498     2.299
   1.05438  0.00514 -0.01048 -0.59039  0.000367  0.000163  0.028172     2.257
   1.05689  0.00705 -0.01212 -0.66053  0.000437  0.000186  0.027726     2.347
   1.05960  0.00924 -0.01371 -0.71012  0.000494  0.000211  0.027430     2.338
   1.06254  0.01171 -0.01530 -0.75480  0.000542  0.000233  0.026388     2.332
   1.06576  0.01450 -0.01689 -0.79465  0.000594  0.000254  0.024571     2.340
   1.06931  0.01766 -0.01852 -0.82808  0.000656  0.000278  0.024016     2.361
   1.07328  0.02125 -0.02021 -0.85958  0.000708  0.000301  0.023605     2.354
   1.07773  0.02534 -0.02197 -0.89155  0.000755  0.000322  0.022173     2.346
   1.08275  0.03002 -0.02380 -0.92066  0.000820  0.000347  0.021117     2.363
   1.08845  0.03539 -0.02569 -0.94770  0.000884  0.000373  0.019812     2.370
   1.09493  0.04158 -0.02763 -0.97233  0.000959  0.000403  0.017842     2.383
   1.10237  0.04875 -0.02960 -0.99213  0.001058  0.000438  0.015908     2.413
   1.11095  0.05710 -0.03158 -1.00699  0.001175  0.000481  0.014079     2.444
   1.12083  0.06678 -0.03358 -1.01758  0.001309  0.000529  0.013201     2.473
   1.13204  0.07781 -0.03556 -1.02791  0.001423  0.000577  0.011903     2.467
   1.14448  0.09010 -0.03747 -1.03578  0.001563  0.000629  0.010854     2.485
   1.15809  0.10359 -0.03926 -1.04196  0.001704  0.000682  0.010099     2.497
   1.17266  0.11806 -0.04096 -1.04727  0.001838  0.000735  0.009737     2.500
   1.18781  0.13314 -0.04249 -1.05343  0.001947  0.000783  0.009260     2.487
   1.20335  0.14862 -0.04385 -1.05904  0.002058  0.000829  0.008699     2.483
   1.21923  0.16445 -0.04503 -1.06353  0.002181  0.000875  0.008031     2.491
   1.23540  0.18059 -0.04604 -1.06623  0.002322  0.000924  0.007910     2.513
   1.25175  0.19691 -0.04691 -1.07033  0.002406  0.000964  0.007612     2.495
   1.26813  0.21328 -0.04763 -1.07378  0.002507  0.001005  0.007272     2.494
   1.28457  0.22971 -0.04819 -1.07658  0.002613  0.001045  0.006869     2.500
   1.30115  0.24629 -0.04860 -1.07842  0.002732  0.001087  0.006657     2.513
   1.31783  0.26296 -0.04890 -1.08052  0.002826  0.001126  0.006545     2.509
   1.33448  0.27961 -0.04908 -1.08307  0.002902  0.001161  0.006294     2.500
   1.35110  0.29624 -0.04912 -1.08478  0.003003  0.001198  0.006059     2.507
   1.36778  0.31291 -0.04903 -1.08627  0.003103  0.001234  0.005801     2.515
   1.38450  0.32963 -0.04882 -1.08721  0.003207  0.001271  0.005632     2.524
   1.40120  0.34633 -0.04849 -1.08832  0.003297  0.001305  0.005384     2.526
   1.41786  0.36298 -0.04803 -1.08870  0.003406  0.001342  0.005151     2.538
   1.43449  0.37961 -0.04745 -1.08880  0.003512  0.001378  0.004873     2.549
   1.45114  0.39623 -0.04673 -1.08826  0.003632  0.001416  0.004576     2.564
   1.46777  0.41285 -0.04588 -1.08717  0.003769  0.001457  0.004273     2.587
   1.48439  0.42943 -0.04489 -1.08554  0.003912  0.001498  0.003926     2.612
   1.50097  0.44597 -0.04378 -1.08325  0.004083  0.001542  0.003545     2.648
   1.51751  0.46247 -0.04253 -1.08019  0.004268  0.001589  0.003089     2.686
   1.53401  0.47892 -0.04112 -1.07601  0.004512  0.001643  0.002601     2.746
   1.55050  0.49532 -0.03957 -1.07129  0.004797  0.001698  0.002039     2.824
   1.56702  0.51176 -0.03785 -1.06563  0.005168  0.001760  0.001469     2.937
   1.58368  0.52831 -0.03597 -1.05952  0.005621  0.001825  0.000951     3.081
   1.60055  0.54506 -0.03395 -1.05346  0.006142  0.001889  0.000521     3.251
   1.61761  0.56199 -0.03181 -1.04762  0.006719  0.001952  0.000188     3.442
   1.63483  0.57906 -0.02959 -1.04227  0.007337  0.002012 -0.000059     3.647
   1.65218  0.59626 -0.02732 -1.03747  0.007985  0.002066 -0.000228     3.865
   1.66962  0.61355 -0.02500 -1.03332  0.008648  0.002115 -0.000333     4.089
   1.68712  0.63090 -0.02268 -1.02950  0.009309  0.002162 -0.000389     4.307
   1.70462  0.64824 -0.02037 -1.02597  0.009956  0.002207 -0.000417     4.511
   1.72205  0.66552 -0.01809 -1.02267  0.010581  0.002251 -0.000426     4.701
   1.73939  0.68272 -0.01585 -1.01975  0.011176  0.002292 -0.000425     4.877
   1.75663  0.69982 -0.01367 -1.01708  0.011724  0.002330 -0.000420     5.032
   1.77378  0.71684 -0.01156 -1.01461  0.012215  0.002367 -0.000414     5.161
   1.79085  0.73379 -0.00953 -1.01220  0.012639  0.002403 -0.000407     5.259
   1.80784  0.75067 -0.00760 -1.00995  0.012992  0.002440 -0.000400     5.325
   1.82474  0.76746 -0.00576 -1.00777  0.013263  0.002475 -0.000394     5.359
   1.84154  0.78418 -0.00404 -1.00562  0.013444  0.002511 -0.000388     5.354
   1.85823  0.80079 -0.00245 -1.00346  0.013526  0.002546 -0.000382     5.312
   1.87481  0.81731 -0.00100 -1.00139  0.013499  0.002581 -0.000376     5.230
   1.89126  0.83371  0.00030 -0.99928  0.013353  0.002617 -0.000369     5.102
   1.90759  0.85000  0.00143 -0.99717  0.013079  0.002653 -0.000357     4.929
   1.92381  0.86619  0.00238 -0.99506  0.012673  0.002690 -0.000333     4.711
   1.93987  0.88223  0.00314 -0.99288  0.012139  0.002726 -0.000281     4.453
   1.95573  0.89808  0.00370 -0.99077  0.011476  0.002761 -0.000174     4.156
   1.97131  0.91366  0.00404 -0.98871  0.010689  0.002794  0.000038     3.825
   1.98653  0.92887  0.00415 -0.98722  0.009781  0.002819  0.000405     3.470
   2.00124  0.94358  0.00401 -0.98758  0.008779  0.002816  0.000967     3.118
   2.01526  0.95760  0.00361 -0.99136  0.007719  0.002769  0.001764     2.788
   2.02837  0.97069  0.00296 -1.00035  0.006627  0.002664  0.002907     2.488
   2.04040  0.98268  0.00205 -1.01676  0.005540  0.002494  0.004642     2.222
   2.05125  0.99348  0.00090 -1.04436  0.004464  0.002250  0.003816     1.984
   2.05783  1.00000  0.00000 -1.03220  0.005062  0.002382  0.000000     2.125
   2.05783  1.00010 -0.00002  1.03220  0.108387  0.016823  0.000000     6.443
   2.06446  1.00660 -0.00133  1.02939  0.103290  0.017221  0.000000     5.998
   2.07221  1.01424 -0.00260  1.02658  0.100750  0.017621  0.000000     5.718
   2.08127  1.02320 -0.00394  1.02418  0.098163  0.017987  0.000000     5.457
   2.09186  1.03369 -0.00535  1.01723  0.095515  0.018915  0.000000     5.050
   2.10423  1.04597 -0.00685  1.00012  0.092932  0.021098  0.000000     4.405
   2.11869  1.06035 -0.00845  0.98870  0.089453  0.022606  0.000000     3.957
   2.13560  1.07717 -0.01015  0.97743  0.085373  0.024108  0.000000     3.541
   2.15535  1.09684 -0.01194  0.96615  0.080682  0.025611  0.000000     3.150
   2.17845  1.11986 -0.01382  0.95516  0.075376  0.027047  0.000000     2.787
   2.20544  1.14678 -0.01579  0.94555  0.069502  0.028257  0.000000     2.460
   2.23698  1.17826 -0.01781  0.93890  0.063236  0.029054  0.000000     2.176
   2.27386  1.21507 -0.01987  0.93606  0.056890  0.029360  0.000000     1.938
   2.31695  1.25812 -0.02193  0.93721  0.050811  0.029193  0.000000     1.741
   2.36732  1.30845 -0.02395  0.94150  0.045309  0.028702  0.000000     1.579
   2.42619  1.36729 -0.02585  0.94793  0.040585  0.028033  0.000000     1.448
   2.49501  1.43608 -0.02757  0.95545  0.036711  0.027320  0.000000     1.344
   2.57543  1.51649 -0.02900  0.96289  0.033628  0.026664  0.000000     1.261
   2.66944  1.61049 -0.03002  0.96972  0.031230  0.026108  0.000000     1.196
   2.77931  1.72036 -0.03048  0.97570  0.029401  0.025658  0.000000     1.146
   2.90773  1.84878 -0.03021  0.98070  0.028017  0.025297  0.000000     1.108
   3.05782  1.99887 -0.02898  0.98750  0.026744  0.024804  0.000000     1.078
