#    s        x        y     Ue/Vinf    Dstar     Theta      Cf       H
   0.00000  1.00000  0.00000  0.98856  0.078473  0.013146 -0.000074     5.969
   0.00668  0.99360  0.00192  0.99064  0.075070  0.012929 -0.000076     5.806
   0.01807  0.98272  0.00530  0.99492  0.072265  0.012503 -0.000079     5.780
   0.03106  0.97032  0.00914  1.00015  0.069361  0.012004 -0.000082     5.778
   0.04516  0.95680  0.01317  1.00629  0.066551  0.011445 -0.000087     5.815
   0.06006  0.94246  0.01720  1.01332  0.063928  0.010837 -0.000092     5.899
   0.07565  0.92739  0.02118  1.02129  0.061509  0.010182 -0.000098     6.041
   0.09186  0.91167  0.02516  1.03027  0.059241  0.009482 -0.000104     6.248
   0.10852  0.89549  0.02915  1.04030  0.057062  0.008743 -0.000112     6.527
   0.12544  0.87905  0.03313  1.05139  0.054964  0.007972 -0.000122     6.894
   0.14250  0.86245  0.03708  1.06365  0.052936  0.007172 -0.000135     7.381
   0.15964  0.84577  0.04099  1.07725  0.050968  0.006341 -0.000151     8.038
   0.17681  0.82904  0.04484  1.09243  0.049035  0.005476 -0.000174     8.955
   0.19398  0.81229  0.04864  1.10986  0.047105  0.004555 -0.000208    10.342
   0.21115  0.79553  0.05238  1.13044  0.045124  0.003555 -0.000265    12.695
   0.22833  0.77875  0.05606  1.15665  0.042952  0.002391 -0.000294    17.964
   0.24546  0.76200  0.05967  1.16902  0.041064  0.001901 -0.000498    21.602
   0.26249  0.74535  0.06319  1.16915  0.039332  0.001899 -0.000499    20.710
   0.27941  0.72877  0.06660  1.16924  0.037476  0.001899 -0.000500    19.734
   0.29629  0.71222  0.06990  1.16931  0.035538  0.001900 -0.000502    18.707
   0.31313  0.69568  0.07308  1.16937  0.033545  0.001901 -0.000503    17.648
   0.32994  0.67915  0.07616  1.16944  0.031531  0.001902 -0.000504    16.579
   0.34670  0.66266  0.07911  1.16951  0.029496  0.001903 -0.000506    15.501
   0.36339  0.64620  0.08193  1.16961  0.027475  0.001903 -0.000508    14.437
   0.38005  0.62976  0.08462  1.16976  0.025482  0.001902 -0.000511    13.394
   0.39672  0.61329  0.08718  1.16997  0.023525  0.001900 -0.000515    12.379
   0.41338  0.59681  0.08962  1.17027  0.021600  0.001897 -0.000520    11.388
   0.42997  0.58038  0.09191  1.17069  0.019722  0.001891 -0.000527    10.428
   0.44649  0.56400  0.09406  1.17128  0.017922  0.001883 -0.000537     9.518
   0.46301  0.54760  0.09605  1.17210  0.016203  0.001872 -0.000549     8.657
   0.47954  0.53117  0.09790  1.17322  0.014563  0.001857 -0.000565     7.843
   0.49603  0.51477  0.09961  1.17471  0.013006  0.001838 -0.000588     7.076
   0.51242  0.49845  0.10115  1.17671  0.011551  0.001815 -0.000619     6.366
   0.52875  0.48218  0.10252  1.17936  0.010242  0.001786 -0.000655     5.736
   0.54509  0.46588  0.10371  1.18283  0.009047  0.001751 -0.000671     5.167
   0.56144  0.44957  0.10475  1.18726  0.007970  0.001710 -0.000619     4.661
   0.57774  0.43329  0.10561  1.19272  0.007019  0.001663 -0.000417     4.220
   0.59394  0.41711  0.10630  1.19906  0.006202  0.001612 -0.000022     3.847
   0.61007  0.40098  0.10679  1.20647  0.005512  0.001555  0.000553     3.544
   0.62617  0.38489  0.10708  1.21479  0.004942  0.001494  0.001254     3.309
   0.64227  0.36879  0.10718  1.22352  0.004481  0.001430  0.002000     3.133
   0.65836  0.35270  0.10708  1.23229  0.004092  0.001367  0.002796     2.994
   0.67432  0.33674  0.10680  1.24094  0.003740  0.001304  0.003716     2.868
   0.69010  0.32097  0.10629  1.24836  0.003465  0.001246  0.004544     2.780
   0.70583  0.30526  0.10554  1.25446  0.003246  0.001194  0.005262     2.720
   0.72167  0.28945  0.10454  1.25928  0.003071  0.001145  0.005842     2.683
   0.73747  0.27369  0.10335  1.26400  0.002880  0.001094  0.006647     2.632
   0.75302  0.25820  0.10195  1.26795  0.002684  0.001044  0.007676     2.571
   0.76841  0.24291  0.10027  1.26899  0.002546  0.001002  0.008370     2.541
   0.78386  0.22758  0.09831  1.26800  0.002445  0.000964  0.008764     2.535
   0.79934  0.21226  0.09610  1.26713  0.002322  0.000923  0.009437     2.514
   0.81467  0.19713  0.09366  1.26497  0.002204  0.000884  0.010130     2.495
   0.82983  0.18221  0.09095  1.26126  0.002098  0.000845  0.010766     2.481
   0.84493  0.16741  0.08797  1.25605  0.002001  0.000808  0.011302     2.476
   0.85995  0.15275  0.08473  1.24966  0.001915  0.000771  0.011656     2.484
   0.87475  0.13836  0.08125  1.24368  0.001805  0.000730  0.012444     2.473
   0.88915  0.12444  0.07757  1.23663  0.001672  0.000686  0.013874     2.437
   0.90314  0.11101  0.07364  1.22463  0.001582  0.000650  0.014537     2.436
   0.91683  0.09797  0.06946  1.21123  0.001503  0.000613  0.014852     2.454
   0.92993  0.08560  0.06517  1.19896  0.001395  0.000570  0.015945     2.447
   0.94206  0.07425  0.06087  1.18462  0.001249  0.000525  0.018817     2.381
   0.95332  0.06387  0.05649  1.15968  0.001179  0.000494  0.019396     2.387
   0.96371  0.05444  0.05215  1.13514  0.001121  0.000463  0.019266     2.422
   0.97301  0.04611  0.04801  1.11456  0.001023  0.000425  0.021016     2.409
   0.98119  0.03891  0.04412  1.09068  0.000932  0.000390  0.022929     2.393
   0.98837  0.03273  0.04046  1.06273  0.000849  0.000358  0.024988     2.374
   0.99470  0.02743  0.03701  1.03006  0.000779  0.000330  0.026780     2.360
   1.00030  0.02288  0.03375  0.99293  0.000714  0.000305  0.028680     2.341
   1.00527  0.01898  0.03066  0.95151  0.000664  0.000283  0.029337     2.348
   1.00973  0.01561  0.02774  0.90720  0.000602  0.000260  0.031865     2.315
   1.01375  0.01272  0.02495  0.85329  0.000557  0.000242  0.032792     2.301
   1.01739  0.01024  0.02228  0.79323  0.000519  0.000227  0.033154     2.287
   1.02073  0.00811  0.01971  0.72894  0.000489  0.000213  0.031991     2.298
   1.02380  0.00630  0.01724  0.66265  0.000449  0.000195  0.031642     2.299
   1.02664  0.00476  0.01485  0.57902  0.000405  0.000184  0.033510     2.202
   1.02926  0.00350  0.01255  0.48953  0.000420  0.000181  0.024581     2.318
   1.03171  0.00246  0.01033  0.40664  0.000359  0.000161  0.025944     2.226
   1.03400  0.00163  0.00819  0.29911  0.000363  0.000163  0.018952     2.222
   1.03618  0.00098  0.00612  0.20086  0.000353  0.000156  0.012605     2.265
   1.03826  0.00048  0.00410  0.09019  0.000301  0.000135  0.006844     2.230
   1.04024  0.00015  0.00214 -0.04171  0.000301  0.000135  0.003165     2.230
   1.04215  0.00001  0.00024 -0.17700  0.000286  0.000129  0.014225     2.224
   1.04400  0.00012 -0.00161 -0.33133  0.000264  0.000119  0.029157     2.213
   1.04587  0.00052 -0.00343 -0.48880  0.000269  0.000120  0.040900     2.246
   1.04780  0.00123 -0.00524 -0.62521  0.000292  0.000129  0.047462     2.265
   1.04986  0.00223 -0.00703 -0.74052  0.000320  0.000140  0.050708     2.278
   1.05205  0.00354 -0.00879 -0.83459  0.000355  0.000154  0.050392     2.300
   1.05438  0.00514 -0.01048 -0.90726  0.000398  0.000171  0.047635     2.326
   1.05689  0.00705 -0.01212 -0.95302  0.000468  0.000195  0.039895     2.394
   1.05960  0.00924 -0.01371 -0.97945  0.000544  0.000223  0.033789     2.435
   1.06254  0.01171 -0.01530 -1.00381  0.000596  0.000247  0.032546     2.407
   1.06576  0.01450 -0.01689 -1.02656  0.000653  0.000271  0.030328     2.409
   1.06931  0.01766 -0.01852 -1.04095  0.000738  0.000300  0.025833     2.460
   1.07328  0.02125 -0.02021 -1.06092  0.000770  0.000321  0.026801     2.400
   1.07773  0.02534 -0.02197 -1.07704  0.000847  0.000348  0.023962     2.432
   1.08275  0.03002 -0.02380 -1.09392  0.000904  0.000373  0.023111     2.419
   1.08845  0.03539 -0.02569 -1.10928  0.000976  0.000402  0.021452     2.430
   1.09493  0.04158 -0.02763 -1.12282  0.001058  0.000433  0.019783     2.443
   1.10237  0.04875 -0.02960 -1.13252  0.001163  0.000470  0.017567     2.474
   1.11095  0.05710 -0.03158 -1.13654  0.001304  0.000516  0.014882     2.526
   1.12083  0.06678 -0.03358 -1.13646  0.001462  0.000569  0.012658     2.569
   1.13204  0.07781 -0.03556 -1.13767  0.001582  0.000619  0.011886     2.555
   1.14448  0.09010 -0.03747 -1.13674  0.001742  0.000675  0.010502     2.579
   1.15809  0.10359 -0.03926 -1.13469  0.001905  0.000734  0.009393     2.597
   1.17266  0.11806 -0.04096 -1.13313  0.002049  0.000790  0.008743     2.595
   1.18781  0.13314 -0.04249 -1.13289  0.002169  0.000841  0.008419     2.578
   1.20335  0.14862 -0.04385 -1.13258  0.002297  0.000892  0.007965     2.576
   1.21923  0.16445 -0.04503 -1.13171  0.002436  0.000943  0.007435     2.584
   1.23540  0.18059 -0.04604 -1.13010  0.002585  0.000994  0.006879     2.599
   1.25175  0.19691 -0.04691 -1.12986  0.002685  0.001039  0.006734     2.584
   1.26813  0.21328 -0.04763 -1.12930  0.002801  0.001084  0.006450     2.584
   1.28457  0.22971 -0.04819 -1.12847  0.002921  0.001128  0.006144     2.589
   1.30115  0.24629 -0.04860 -1.12738  0.003045  0.001172  0.005837     2.597
   1.31783  0.26296 -0.04890 -1.12608  0.003169  0.001216  0.005546     2.606
   1.33448  0.27961 -0.04908 -1.12531  0.003268  0.001256  0.005399     2.602
   1.35110  0.29624 -0.04912 -1.12415  0.003382  0.001297  0.005175     2.608
   1.36778  0.31291 -0.04903 -1.12232  0.003518  0.001340  0.004867     2.626
   1.38450  0.32963 -0.04882 -1.12069  0.003636  0.001380  0.004657     2.634
   1.40120  0.34633 -0.04849 -1.11865  0.003768  0.001423  0.004406     2.649
   1.41786  0.36298 -0.04803 -1.11621  0.003913  0.001466  0.004130     2.670
   1.43449  0.37961 -0.04745 -1.11322  0.004078  0.001511  0.003814     2.699
   1.45114  0.39623 -0.04673 -1.10964  0.004268  0.001559  0.003460     2.738
   1.46777  0.41285 -0.04588 -1.10547  0.004487  0.001609  0.003073     2.788
   1.48439  0.42943 -0.04489 -1.10074  0.004740  0.001663  0.002661     2.851
   1.50097  0.44597 -0.04378 -1.09548  0.005041  0.001719  0.002216     2.932
   1.51751  0.46247 -0.04253 -1.08963  0.005418  0.001779  0.001717     3.045
   1.53401  0.47892 -0.04112 -1.08352  0.005884  0.001841  0.001197     3.195
   1.55050  0.49532 -0.03957 -1.07749  0.006461  0.001903  0.000684     3.395
   1.56702  0.51176 -0.03785 -1.07194  0.007175  0.001962  0.000217     3.658
   1.58368  0.52831 -0.03597 -1.06714  0.008039  0.002014 -0.000151     3.992
   1.60055  0.54506 -0.03395 -1.06301  0.009016  0.002060 -0.000374     4.376
   1.61761  0.56199 -0.03181 -1.05944  0.010087  0.002103 -0.000472     4.796
   1.63483  0.57906 -0.02959 -1.05647  0.011227  0.002141 -0.000492     5.243
   1.65218  0.59626 -0.02732 -1.05403  0.012412  0.002175 -0.000482     5.707
   1.66962  0.61355 -0.02500 -1.05201  0.013619  0.002205 -0.000461     6.177
   1.68712  0.63090 -0.02268 -1.05030  0.014819  0.002231 -0.000442     6.641
   1.70462  0.64824 -0.02037 -1.04884  0.015998  0.002256 -0.000427     7.092
   1.72205  0.66552 -0.01809 -1.04756  0.017140  0.002278 -0.000416     7.524
   1.73939  0.68272 -0.01585 -1.04643  0.018234  0.002299 -0.000406     7.932
   1.75663  0.69982 -0.01367 -1.04539  0.019258  0.002319 -0.000398     8.305
   1.77378  0.71684 -0.01156 -1.04442  0.020199  0.002338 -0.000392     8.638
   1.79085  0.73379 -0.00953 -1.04349  0.021046  0.002358 -0.000386     8.926
   1.80784  0.75067 -0.00760 -1.04259  0.021794  0.002377 -0.000381     9.167
   1.82474  0.76746 -0.00576 -1.04170  0.022429  0.002398 -0.000376     9.355
   1.84154  0.78418 -0.00404 -1.04080  0.022940  0.002418 -0.000371     9.486
   1.85823  0.80079 -0.00245 -1.03988  0.023317  0.002440 -0.000367     9.555
   1.87481  0.81731 -0.00100 -1.03893  0.023546  0.002463 -0.000364     9.559
   1.89126  0.83371  0.00030 -1.03794  0.023613  0.002488 -0.000360     9.492
   1.90759  0.85000  0.00143 -1.03689  0.023508  0.002514 -0.000357     9.351
   1.92381  0.86619  0.00238 -1.03577  0.023218  0.002542 -0.000354     9.134
   1.93987  0.88223  0.00314 -1.03456  0.022744  0.002572 -0.000351     8.843
   1.95573  0.89808  0.00370 -1.03326  0.022071  0.002604 -0.000349     8.476
   1.97131  0.91366  0.00404 -1.03186  0.021196  0.002638 -0.000348     8.034
   1.98653  0.92887  0.00415 -1.03033  0.020106  0.002674 -0.000348     7.519
   2.00124  0.94358  0.00401 -1.02869  0.018810  0.002711 -0.000351     6.938
   2.01526  0.95760  0.00361 -1.02695  0.017333  0.002749 -0.000358     6.306
   2.02837  0.97069  0.00296 -1.02517  0.015702  0.002785 -0.000367     5.638
   2.04040  0.98268  0.00205 -1.01195  0.014081  0.003053 -0.000163     4.612
   2.05125  0.99348  0.00090 -0.99698  0.012541  0.003347  0.000054     3.747
   2.05783  1.00000  0.00000 -0.98856  0.013203  0.003514  0.000045     3.757
   2.05783  1.00010 -0.00002  0.98856  0.091675  0.016660  0.000000     5.503
   2.06446  1.00660 -0.00133  0.98354  0.085397  0.017284  0.000000     4.941
   2.07221  1.01424 -0.00263  0.97786  0.082193  0.017973  0.000000     4.573
   2.08127  1.02319 -0.00401  0.97084  0.078986  0.018819  0.000000     4.197
   2.09186  1.03367 -0.00548  0.96194  0.075650  0.019888  0.000000     3.804
   2.10423  1.04595 -0.00706  0.95064  0.072060  0.021248  0.000000     3.391
   2.11869  1.06031 -0.00876  0.94028  0.067969  0.022495  0.000000     3.021
   2.13560  1.07711 -0.01060  0.93120  0.063389  0.023580  0.000000     2.688
   2.15535  1.09677 -0.01259  0.92388  0.058389  0.024440  0.000000     2.389
   2.17845  1.11976 -0.01472  0.91913  0.053095  0.024982  0.000000     2.125
   2.20544  1.14665 -0.01700  0.91766  0.047715  0.025143  0.000000     1.898
   2.23698  1.17811 -0.01944  0.91980  0.042514  0.024921  0.000000     1.706
   2.27386  1.21489 -0.02203  0.92532  0.037758  0.024387  0.000000     1.548
   2.31695  1.25790 -0.02476  0.93333  0.033645  0.023665  0.000000     1.422
   2.36732  1.30819 -0.02762  0.94258  0.030255  0.022891  0.000000     1.322
   2.42619  1.36698 -0.03059  0.95191  0.027560  0.022163  0.000000     1.244
   2.49501  1.43573 -0.03365  0.96052  0.025465  0.021531  0.000000     1.183
   2.57543  1.51609 -0.03675  0.96806  0.023858  0.021006  0.000000     1.136
   2.66944  1.61005 -0.03985  0.97445  0.022639  0.020580  0.000000     1.100
   2.77931  1.71988 -0.04289  0.97976  0.021721  0.020238  0.000000     1.073
   2.90773  1.84826 -0.04579  0.98408  0.021036  0.019967  0.000000     1.054
   3.05782  1.99833 -0.04848  0.98885  0.020443  0.019675  0.000000     1.039
