#    s        x        y     Ue/Vinf    Dstar     Theta      Cf       H
   0.00000  1.00000  0.00000  0.98657  0.078113  0.013183 -0.000073     5.925
   0.00668  0.99360  0.00192  0.98867  0.074699  0.012965 -0.000076     5.761
   0.01807  0.98272  0.00530  0.99299  0.071892  0.012535 -0.000079     5.735
   0.03106  0.97032  0.00914  0.99828  0.068990  0.012032 -0.000082     5.734
   0.04516  0.95680  0.01317  1.00449  0.066184  0.011468 -0.000087     5.771
   0.06006  0.94246  0.01720  1.01160  0.063567  0.010853 -0.000092     5.857
   0.07565  0.92739  0.02118  1.01967  0.061156  0.010191 -0.000098     6.001
   0.09186  0.91167  0.02516  1.02878  0.058898  0.009483 -0.000104     6.211
   0.10852  0.89549  0.02915  1.03896  0.056730  0.008736 -0.000113     6.494
   0.12544  0.87905  0.03313  1.05024  0.054645  0.007955 -0.000123     6.869
   0.14250  0.86245  0.03708  1.06272  0.052631  0.007143 -0.000135     7.368
   0.15964  0.84577  0.04099  1.07659  0.050676  0.006300 -0.000152     8.044
   0.17681  0.82904  0.04484  1.09212  0.048756  0.005420 -0.000175     8.996
   0.19398  0.81229  0.04864  1.11005  0.046832  0.004479 -0.000211    10.455
   0.21115  0.79553  0.05238  1.13135  0.044848  0.003452 -0.000273    12.991
   0.22833  0.77875  0.05606  1.15905  0.042643  0.002233 -0.000295    19.100
   0.24546  0.76200  0.05967  1.16744  0.040856  0.001904 -0.000497    21.453
   0.26249  0.74535  0.06319  1.16756  0.039112  0.001903 -0.000498    20.554
   0.27941  0.72877  0.06660  1.16765  0.037247  0.001903 -0.000499    19.576
   0.29629  0.71222  0.06990  1.16772  0.035304  0.001903 -0.000500    18.548
   0.31313  0.69568  0.07308  1.16778  0.033315  0.001904 -0.000501    17.493
   0.32994  0.67915  0.07616  1.16785  0.031297  0.001906 -0.000503    16.424
   0.34670  0.66266  0.07911  1.16793  0.029269  0.001906 -0.000504    15.354
   0.36339  0.64620  0.08193  1.16803  0.027250  0.001907 -0.000507    14.292
   0.38005  0.62976  0.08462  1.16819  0.025265  0.001906 -0.000510    13.258
   0.39672  0.61329  0.08718  1.16841  0.023310  0.001903 -0.000514    12.246
   0.41338  0.59681  0.08962  1.16873  0.021394  0.001900 -0.000520    11.263
   0.42997  0.58038  0.09191  1.16916  0.019522  0.001894 -0.000527    10.309
   0.44649  0.56400  0.09406  1.16978  0.017736  0.001885 -0.000536     9.408
   0.46301  0.54760  0.09605  1.17062  0.016024  0.001873 -0.000549     8.553
   0.47954  0.53117  0.09790  1.17178  0.014395  0.001858 -0.000566     7.747
   0.49603  0.51477  0.09961  1.17332  0.012852  0.001839 -0.000589     6.990
   0.51242  0.49845  0.10115  1.17538  0.011416  0.001815 -0.000621     6.290
   0.52875  0.48218  0.10252  1.17811  0.010111  0.001785 -0.000657     5.664
   0.54509  0.46588  0.10371  1.18167  0.008934  0.001750 -0.000668     5.106
   0.56144  0.44957  0.10475  1.18620  0.007878  0.001708 -0.000604     4.612
   0.57774  0.43329  0.10561  1.19174  0.006937  0.001661 -0.000383     4.177
   0.59394  0.41711  0.10630  1.19818  0.006126  0.001609  0.000038     3.807
   0.61007  0.40098  0.10679  1.20566  0.005460  0.001552  0.000616     3.518
   0.62617  0.38489  0.10708  1.21406  0.004892  0.001490  0.001338     3.284
   0.64227  0.36879  0.10718  1.22271  0.004451  0.001427  0.002061     3.120
   0.65836  0.35270  0.10708  1.23150  0.004061  0.001363  0.002880     2.979
   0.67432  0.33674  0.10680  1.24000  0.003718  0.001301  0.003782     2.859
   0.69010  0.32097  0.10629  1.24739  0.003443  0.001243  0.004629     2.770
   0.70583  0.30526  0.10554  1.25327  0.003231  0.001191  0.005323     2.714
   0.72167  0.28945  0.10454  1.25791  0.003061  0.001142  0.005885     2.679
   0.73747  0.27369  0.10335  1.26253  0.002870  0.001092  0.006689     2.629
   0.75302  0.25820  0.10195  1.26641  0.002674  0.001042  0.007731     2.567
   0.76841  0.24291  0.10027  1.26719  0.002541  0.001000  0.008386     2.540
   0.78386  0.22758  0.09831  1.26617  0.002439  0.000963  0.008789     2.534
   0.79934  0.21226  0.09610  1.26502  0.002324  0.000923  0.009371     2.518
   0.81467  0.19713  0.09366  1.26340  0.002192  0.000881  0.010248     2.488
   0.82983  0.18221  0.09095  1.25923  0.002088  0.000843  0.010862     2.476
   0.84493  0.16741  0.08797  1.25324  0.002009  0.000808  0.011127     2.485
   0.85995  0.15275  0.08473  1.24790  0.001901  0.000768  0.011834     2.475
   0.87475  0.13836  0.08125  1.24116  0.001795  0.000728  0.012600     2.465
   0.88915  0.12444  0.07757  1.23311  0.001677  0.000687  0.013711     2.442
   0.90314  0.11101  0.07364  1.22179  0.001577  0.000648  0.014593     2.433
   0.91683  0.09797  0.06946  1.20800  0.001502  0.000612  0.014803     2.455
   0.92993  0.08560  0.06517  1.19582  0.001386  0.000568  0.016136     2.439
   0.94206  0.07425  0.06087  1.18037  0.001250  0.000525  0.018704     2.382
   0.95332  0.06387  0.05649  1.15571  0.001181  0.000494  0.019224     2.391
   0.96371  0.05444  0.05215  1.13165  0.001116  0.000461  0.019360     2.419
   0.97301  0.04611  0.04801  1.11034  0.001018  0.000424  0.021153     2.403
   0.98119  0.03891  0.04412  1.08563  0.000933  0.000389  0.022762     2.395
   0.98837  0.03273  0.04046  1.05777  0.000846  0.000357  0.025103     2.369
   0.99470  0.02743  0.03701  1.02446  0.000781  0.000330  0.026401     2.366
   1.00030  0.02288  0.03375  0.98812  0.000710  0.000304  0.028720     2.340
   1.00527  0.01898  0.03066  0.94575  0.000660  0.000282  0.029541     2.342
   1.00973  0.01561  0.02774  0.89924  0.000598  0.000260  0.032172     2.302
   1.01375  0.01272  0.02495  0.84443  0.000565  0.000244  0.031504     2.317
   1.01739  0.01024  0.02228  0.78858  0.000518  0.000225  0.032627     2.300
   1.02073  0.00811  0.01971  0.72203  0.000476  0.000211  0.033637     2.263
   1.02380  0.00630  0.01724  0.65098  0.000459  0.000198  0.029793     2.320
   1.02664  0.00476  0.01485  0.57128  0.000401  0.000183  0.033590     2.194
   1.02926  0.00350  0.01255  0.48145  0.000421  0.000180  0.023686     2.335
   1.03171  0.00246  0.01033  0.39710  0.000353  0.000160  0.026328     2.203
   1.03400  0.00163  0.00819  0.28858  0.000372  0.000166  0.017464     2.247
   1.03618  0.00098  0.00612  0.19215  0.000342  0.000152  0.012591     2.251
   1.03826  0.00048  0.00410  0.07763  0.000307  0.000138  0.005783     2.230
   1.04024  0.00015  0.00214 -0.04954  0.000307  0.000138  0.003691     2.230
   1.04215  0.00001  0.00024 -0.18974  0.000276  0.000124  0.015912     2.217
   1.04400  0.00012 -0.00161 -0.34745  0.000264  0.000118  0.030203     2.227
   1.04587  0.00052 -0.00343 -0.50542  0.000267  0.000119  0.042937     2.237
   1.04780  0.00123 -0.00524 -0.63461  0.000301  0.000131  0.045709     2.289
   1.04986  0.00223 -0.00703 -0.74973  0.000317  0.000141  0.053014     2.252
   1.05205  0.00354 -0.00879 -0.84749  0.000353  0.000153  0.051206     2.304
   1.05438  0.00514 -0.01048 -0.91663  0.000403  0.000172  0.046987     2.340
   1.05689  0.00705 -0.01212 -0.96256  0.000466  0.000195  0.040846     2.385
   1.05960  0.00924 -0.01371 -0.98915  0.000544  0.000223  0.034021     2.438
   1.06254  0.01171 -0.01530 -1.01061  0.000604  0.000249  0.031674     2.427
   1.06576  0.01450 -0.01689 -1.03398  0.000650  0.000271  0.030949     2.400
   1.06931  0.01766 -0.01852 -1.04841  0.000738  0.000300  0.025975     2.461
   1.07328  0.02125 -0.02021 -1.06646  0.000779  0.000323  0.026251     2.414
   1.07773  0.02534 -0.02197 -1.08364  0.000843  0.000348  0.024489     2.422
   1.08275  0.03002 -0.02380 -1.09889  0.000913  0.000375  0.022664     2.433
   1.08845  0.03539 -0.02569 -1.11578  0.000969  0.000401  0.022040     2.417
   1.09493  0.04158 -0.02763 -1.12786  0.001067  0.000434  0.019449     2.455
   1.10237  0.04875 -0.02960 -1.13712  0.001168  0.000471  0.017509     2.477
   1.11095  0.05710 -0.03158 -1.14058  0.001311  0.000518  0.014773     2.531
   1.12083  0.06678 -0.03358 -1.14079  0.001461  0.000570  0.012756     2.565
   1.13204  0.07781 -0.03556 -1.14089  0.001597  0.000622  0.011647     2.568
   1.14448  0.09010 -0.03747 -1.14024  0.001743  0.000677  0.010553     2.577
   1.15809  0.10359 -0.03926 -1.13812  0.001909  0.000735  0.009400     2.597
   1.17266  0.11806 -0.04096 -1.13569  0.002067  0.000793  0.008565     2.607
   1.18781  0.13314 -0.04249 -1.13553  0.002175  0.000843  0.008399     2.579
   1.20335  0.14862 -0.04385 -1.13517  0.002303  0.000894  0.007952     2.577
   1.21923  0.16445 -0.04503 -1.13410  0.002445  0.000945  0.007395     2.587
   1.23540  0.18059 -0.04604 -1.13247  0.002591  0.000996  0.006864     2.601
   1.25175  0.19691 -0.04691 -1.13220  0.002691  0.001041  0.006725     2.585
   1.26813  0.21328 -0.04763 -1.13138  0.002813  0.001086  0.006401     2.589
   1.28457  0.22971 -0.04819 -1.13048  0.002931  0.001131  0.006110     2.593
   1.30115  0.24629 -0.04860 -1.12904  0.003063  0.001176  0.005757     2.605
   1.31783  0.26296 -0.04890 -1.12786  0.003178  0.001219  0.005528     2.608
   1.33448  0.27961 -0.04908 -1.12709  0.003275  0.001258  0.005388     2.603
   1.35110  0.29624 -0.04912 -1.12571  0.003397  0.001300  0.005130     2.613
   1.36778  0.31291 -0.04903 -1.12394  0.003527  0.001342  0.004851     2.628
   1.38450  0.32963 -0.04882 -1.12221  0.003648  0.001384  0.004630     2.637
   1.40120  0.34633 -0.04849 -1.12014  0.003780  0.001425  0.004384     2.652
   1.41786  0.36298 -0.04803 -1.11753  0.003932  0.001469  0.004086     2.676
   1.43449  0.37961 -0.04745 -1.11448  0.004097  0.001515  0.003774     2.705
   1.45114  0.39623 -0.04673 -1.11094  0.004282  0.001562  0.003438     2.741
   1.46777  0.41285 -0.04588 -1.10671  0.004504  0.001613  0.003047     2.793
   1.48439  0.42943 -0.04489 -1.10192  0.004762  0.001666  0.002628     2.857
   1.50097  0.44597 -0.04378 -1.09655  0.005071  0.001723  0.002170     2.943
   1.51751  0.46247 -0.04253 -1.09071  0.005449  0.001783  0.001679     3.056
   1.53401  0.47892 -0.04112 -1.08463  0.005916  0.001845  0.001167     3.206
   1.55050  0.49532 -0.03957 -1.07862  0.006499  0.001907  0.000657     3.408
   1.56702  0.51176 -0.03785 -1.07310  0.007223  0.001965  0.000191     3.676
   1.58368  0.52831 -0.03597 -1.06835  0.008089  0.002017 -0.000167     4.011
   1.60055  0.54506 -0.03395 -1.06425  0.009075  0.002063 -0.000383     4.399
   1.61761  0.56199 -0.03181 -1.06072  0.010149  0.002106 -0.000475     4.820
   1.63483  0.57906 -0.02959 -1.05779  0.011298  0.002143 -0.000493     5.271
   1.65218  0.59626 -0.02732 -1.05538  0.012487  0.002176 -0.000481     5.737
   1.66962  0.61355 -0.02500 -1.05338  0.013698  0.002206 -0.000460     6.210
   1.68712  0.63090 -0.02268 -1.05170  0.014903  0.002232 -0.000442     6.676
   1.70462  0.64824 -0.02037 -1.05025  0.016083  0.002256 -0.000427     7.128
   1.72205  0.66552 -0.01809 -1.04899  0.017229  0.002278 -0.000416     7.562
   1.73939  0.68272 -0.01585 -1.04787  0.018322  0.002299 -0.000406     7.969
   1.75663  0.69982 -0.01367 -1.04684  0.019349  0.002319 -0.000399     8.344
   1.77378  0.71684 -0.01156 -1.04588  0.020289  0.002338 -0.000392     8.677
   1.79085  0.73379 -0.00953 -1.04496  0.021134  0.002358 -0.000386     8.964
   1.80784  0.75067 -0.00760 -1.04406  0.021880  0.002377 -0.000381     9.204
   1.82474  0.76746 -0.00576 -1.04317  0.022511  0.002397 -0.000376     9.391
   1.84154  0.78418 -0.00404 -1.04228  0.023020  0.002418 -0.000372     9.520
   1.85823  0.80079 -0.00245 -1.04136  0.023390  0.002440 -0.000368     9.587
   1.87481  0.81731 -0.00100 -1.04042  0.023613  0.002463 -0.000364     9.588
   1.89126  0.83371  0.00030 -1.03942  0.023673  0.002487 -0.000360     9.517
   1.90759  0.85000  0.00143 -1.03837  0.023558  0.002514 -0.000357     9.372
   1.92381  0.86619  0.00238 -1.03725  0.023258  0.002542 -0.000354     9.150
   1.93987  0.88223  0.00314 -1.03604  0.022772  0.002572 -0.000352     8.854
   1.95573  0.89808  0.00370 -1.03474  0.022085  0.002604 -0.000350     8.481
   1.97131  0.91366  0.00404 -1.03333  0.021194  0.002638 -0.000349     8.033
   1.98653  0.92887  0.00415 -1.03179  0.020085  0.002674 -0.000349     7.510
   2.00124  0.94358  0.00401 -1.03014  0.018768  0.002712 -0.000352     6.921
   2.01526  0.95760  0.00361 -1.02838  0.017264  0.002749 -0.000359     6.279
   2.02837  0.97069  0.00296 -1.02658  0.015601  0.002786 -0.000368     5.601
   2.04040  0.98268  0.00205 -1.01030  0.013967  0.003116 -0.000148     4.482
   2.05125  0.99348  0.00090 -0.99537  0.012394  0.003410  0.000134     3.635
   2.05783  1.00000  0.00000 -0.98657  0.013051  0.003585  0.000122     3.640
   2.05783  1.00010 -0.00002  0.98657  0.091164  0.016769  0.000000     5.437
   2.06446  1.00660 -0.00133  0.98146  0.084845  0.017403  0.000000     4.875
   2.07221  1.01424 -0.00263  0.97569  0.081617  0.018104  0.000000     4.508
   2.08127  1.02319 -0.00401  0.96852  0.078389  0.018968  0.000000     4.133
   2.09186  1.03367 -0.00548  0.95939  0.075038  0.020064  0.000000     3.740
   2.10423  1.04595 -0.00706  0.94806  0.071426  0.021429  0.000000     3.333
   2.11869  1.06031 -0.00877  0.93814  0.067298  0.022622  0.000000     2.975
   2.13560  1.07711 -0.01061  0.92936  0.062706  0.023668  0.000000     2.649
   2.15535  1.09677 -0.01260  0.92240  0.057709  0.024484  0.000000     2.357
   2.17845  1.11976 -0.01474  0.91804  0.052438  0.024979  0.000000     2.099
   2.20544  1.14665 -0.01703  0.91696  0.047103  0.025096  0.000000     1.877
   2.23698  1.17810 -0.01948  0.91947  0.041966  0.024838  0.000000     1.690
   2.27386  1.21488 -0.02208  0.92528  0.037286  0.024280  0.000000     1.536
   2.31695  1.25789 -0.02482  0.93347  0.033250  0.023547  0.000000     1.412
   2.36732  1.30818 -0.02770  0.94281  0.029931  0.022772  0.000000     1.314
   2.42619  1.36698 -0.03069  0.95215  0.027294  0.022049  0.000000     1.238
   2.49501  1.43572 -0.03378  0.96074  0.025245  0.021423  0.000000     1.178
   2.57543  1.51608 -0.03691  0.96825  0.023674  0.020903  0.000000     1.133
   2.66944  1.61003 -0.04006  0.97461  0.022481  0.020482  0.000000     1.098
   2.77931  1.71986 -0.04315  0.97988  0.021583  0.020144  0.000000     1.071
   2.90773  1.84825 -0.04613  0.98418  0.020913  0.019876  0.000000     1.052
   3.05782  1.99832 -0.04890  0.98890  0.020334  0.019588  0.000000     1.038
