#    s        x        y     Ue/Vinf    Dstar     Theta      Cf       H
   0.00000  1.00000  0.00000  0.97826  0.079100  0.012133 -0.000076     6.519
   0.00668  0.99360  0.00192  0.98047  0.075564  0.011904 -0.000079     6.348
   0.01807  0.98272  0.00530  0.98498  0.072690  0.011457 -0.000082     6.344
   0.03106  0.97032  0.00914  0.99052  0.069731  0.010933 -0.000086     6.378
   0.04516  0.95680  0.01317  0.99703  0.066873  0.010347 -0.000091     6.463
   0.06006  0.94246  0.01720  1.00451  0.064201  0.009708 -0.000097     6.613
   0.07565  0.92739  0.02118  1.01303  0.061732  0.009019 -0.000104     6.844
   0.09186  0.91167  0.02516  1.02268  0.059409  0.008281 -0.000113     7.174
   0.10852  0.89549  0.02915  1.03355  0.057168  0.007500 -0.000124     7.623
   0.12544  0.87905  0.03313  1.04569  0.054995  0.006679 -0.000139     8.234
   0.14250  0.86245  0.03708  1.05930  0.052875  0.005820 -0.000158     9.085
   0.15964  0.84577  0.04099  1.07487  0.050776  0.004907 -0.000187    10.347
   0.17681  0.82904  0.04484  1.09318  0.048647  0.003916 -0.000233    12.423
   0.19398  0.81229  0.04864  1.11589  0.046391  0.002789 -0.000274    16.632
   0.21115  0.79553  0.05238  1.13536  0.044187  0.001924 -0.000477    22.967
   0.22833  0.77875  0.05606  1.13548  0.042411  0.001922 -0.000478    22.063
   0.24546  0.76200  0.05967  1.13555  0.040460  0.001923 -0.000479    21.043
   0.26249  0.74535  0.06319  1.13559  0.038404  0.001924 -0.000479    19.956
   0.27941  0.72877  0.06660  1.13561  0.036301  0.001927 -0.000480    18.842
   0.29629  0.71222  0.06990  1.13563  0.034168  0.001929 -0.000481    17.713
   0.31313  0.69568  0.07308  1.13566  0.032025  0.001931 -0.000482    16.582
   0.32994  0.67915  0.07616  1.13570  0.029886  0.001933 -0.000484    15.460
   0.34670  0.66266  0.07911  1.13577  0.027763  0.001934 -0.000486    14.354
   0.36339  0.64620  0.08193  1.13589  0.025675  0.001934 -0.000488    13.274
   0.38005  0.62976  0.08462  1.13608  0.023640  0.001933 -0.000492    12.232
   0.39672  0.61329  0.08718  1.13637  0.021659  0.001929 -0.000498    11.228
   0.41338  0.59681  0.08962  1.13679  0.019736  0.001923 -0.000505    10.262
   0.42997  0.58038  0.09191  1.13737  0.017875  0.001915 -0.000514     9.335
   0.44649  0.56400  0.09406  1.13819  0.016118  0.001903 -0.000526     8.469
   0.46301  0.54760  0.09605  1.13933  0.014458  0.001888 -0.000543     7.660
   0.47954  0.53117  0.09790  1.14088  0.012900  0.001867 -0.000566     6.908
   0.49603  0.51477  0.09961  1.14294  0.011434  0.001842 -0.000598     6.206
   0.51242  0.49845  0.10115  1.14567  0.010091  0.001812 -0.000632     5.569
   0.52875  0.48218  0.10252  1.14924  0.008909  0.001775 -0.000635     5.018
   0.54509  0.46588  0.10371  1.15377  0.007851  0.001732 -0.000552     4.532
   0.56144  0.44957  0.10475  1.15928  0.006923  0.001683 -0.000314     4.113
   0.57774  0.43329  0.10561  1.16569  0.006116  0.001630  0.000121     3.752
   0.59394  0.41711  0.10630  1.17314  0.005444  0.001570  0.000717     3.466
   0.61007  0.40098  0.10679  1.18133  0.004896  0.001507  0.001405     3.249
   0.62617  0.38489  0.10708  1.18986  0.004438  0.001442  0.002168     3.077
   0.64227  0.36879  0.10718  1.19806  0.004077  0.001379  0.002894     2.955
   0.65836  0.35270  0.10708  1.20589  0.003761  0.001318  0.003663     2.853
   0.67432  0.33674  0.10680  1.21307  0.003482  0.001259  0.004478     2.765
   0.69010  0.32097  0.10629  1.21925  0.003238  0.001203  0.005319     2.690
   0.70583  0.30526  0.10554  1.22351  0.003058  0.001155  0.005945     2.648
   0.72167  0.28945  0.10454  1.22644  0.002914  0.001109  0.006418     2.626
   0.73747  0.27369  0.10335  1.22967  0.002736  0.001061  0.007232     2.579
   0.75302  0.25820  0.10195  1.23165  0.002563  0.001013  0.008172     2.529
   0.76841  0.24291  0.10027  1.23084  0.002438  0.000973  0.008824     2.504
   0.78386  0.22758  0.09831  1.22782  0.002351  0.000938  0.009108     2.506
   0.79934  0.21226  0.09610  1.22540  0.002228  0.000897  0.009828     2.483
   0.81467  0.19713  0.09366  1.22128  0.002114  0.000859  0.010545     2.463
   0.82983  0.18221  0.09095  1.21516  0.002015  0.000822  0.011134     2.452
   0.84493  0.16741  0.08797  1.20730  0.001932  0.000787  0.011499     2.455
   0.85995  0.15275  0.08473  1.19925  0.001831  0.000748  0.012162     2.446
   0.87475  0.13836  0.08125  1.18951  0.001737  0.000710  0.012741     2.445
   0.88915  0.12444  0.07757  1.17907  0.001617  0.000669  0.013953     2.417
   0.90314  0.11101  0.07364  1.16436  0.001518  0.000631  0.014866     2.404
   0.91683  0.09797  0.06946  1.14651  0.001450  0.000597  0.014932     2.430
   0.92993  0.08560  0.06517  1.13047  0.001344  0.000555  0.015995     2.423
   0.94206  0.07425  0.06087  1.11145  0.001205  0.000511  0.018659     2.360
   0.95332  0.06387  0.05649  1.08166  0.001135  0.000481  0.019259     2.362
   0.96371  0.05444  0.05215  1.05172  0.001081  0.000451  0.018962     2.399
   0.97301  0.04611  0.04801  1.02589  0.000986  0.000413  0.020471     2.389
   0.98119  0.03891  0.04412  0.99588  0.000888  0.000377  0.022873     2.353
   0.98837  0.03273  0.04046  0.95911  0.000824  0.000350  0.023618     2.358
   0.99470  0.02743  0.03701  0.92059  0.000749  0.000321  0.025545     2.332
   1.00030  0.02288  0.03375  0.87566  0.000692  0.000298  0.026537     2.323
   1.00527  0.01898  0.03066  0.82678  0.000639  0.000276  0.027421     2.312
   1.00973  0.01561  0.02774  0.77462  0.000594  0.000256  0.027358     2.322
   1.01375  0.01272  0.02495  0.71738  0.000535  0.000235  0.029229     2.281
   1.01739  0.01024  0.02228  0.64700  0.000501  0.000222  0.028708     2.261
   1.02073  0.00811  0.01971  0.57359  0.000480  0.000210  0.025982     2.284
   1.02380  0.00630  0.01724  0.50099  0.000437  0.000191  0.024783     2.290
   1.02664  0.00476  0.01485  0.40802  0.000398  0.000182  0.024522     2.179
   1.02926  0.00350  0.01255  0.31708  0.000415  0.000177  0.015617     2.349
   1.03171  0.00246  0.01033  0.22234  0.000327  0.000149  0.016003     2.198
   1.03400  0.00163  0.00819  0.10332  0.000381  0.000171  0.006206     2.228
   1.03618  0.00098  0.00612  0.00160  0.000316  0.000142  0.000115     2.230
   1.03826  0.00048  0.00410 -0.12350  0.000316  0.000142  0.008926     2.230
   1.04024  0.00015  0.00214 -0.25082  0.000303  0.000136  0.019092     2.220
   1.04215  0.00001  0.00024 -0.41947  0.000251  0.000115  0.039885     2.181
   1.04400  0.00012 -0.00161 -0.57580  0.000275  0.000120  0.045200     2.292
   1.04587  0.00052 -0.00343 -0.72779  0.000265  0.000120  0.064727     2.197
   1.04780  0.00123 -0.00524 -0.85970  0.000299  0.000130  0.061078     2.309
   1.04986  0.00223 -0.00703 -0.96300  0.000323  0.000142  0.064875     2.283
   1.05205  0.00354 -0.00879 -1.04606  0.000364  0.000156  0.059848     2.330
   1.05438  0.00514 -0.01048 -1.09996  0.000420  0.000177  0.051894     2.381
   1.05689  0.00705 -0.01212 -1.13273  0.000486  0.000201  0.044186     2.425
   1.05960  0.00924 -0.01371 -1.14578  0.000578  0.000231  0.034563     2.507
   1.06254  0.01171 -0.01530 -1.15958  0.000629  0.000255  0.033656     2.463
   1.06576  0.01450 -0.01689 -1.16756  0.000711  0.000284  0.028591     2.507
   1.06931  0.01766 -0.01852 -1.17528  0.000776  0.000311  0.026641     2.498
   1.07328  0.02125 -0.02021 -1.18436  0.000835  0.000337  0.025368     2.482
   1.07773  0.02534 -0.02197 -1.19376  0.000899  0.000363  0.023912     2.476
   1.08275  0.03002 -0.02380 -1.20188  0.000973  0.000392  0.022016     2.485
   1.08845  0.03539 -0.02569 -1.21070  0.001041  0.000420  0.020903     2.477
   1.09493  0.04158 -0.02763 -1.21666  0.001137  0.000454  0.018736     2.502
   1.10237  0.04875 -0.02960 -1.22091  0.001239  0.000492  0.016942     2.520
   1.11095  0.05710 -0.03158 -1.21731  0.001413  0.000542  0.013447     2.606
   1.12083  0.06678 -0.03358 -1.21349  0.001553  0.000593  0.012011     2.619
   1.13204  0.07781 -0.03556 -1.20832  0.001712  0.000648  0.010574     2.641
   1.14448  0.09010 -0.03747 -1.20244  0.001878  0.000706  0.009389     2.659
   1.15809  0.10359 -0.03926 -1.19584  0.002056  0.000767  0.008321     2.680
   1.17266  0.11806 -0.04096 -1.18998  0.002215  0.000826  0.007673     2.681
   1.18781  0.13314 -0.04249 -1.18616  0.002337  0.000880  0.007471     2.656
   1.20335  0.14862 -0.04385 -1.18264  0.002472  0.000933  0.007087     2.651
   1.21923  0.16445 -0.04503 -1.17895  0.002619  0.000985  0.006615     2.658
   1.23540  0.18059 -0.04604 -1.17504  0.002772  0.001038  0.006141     2.669
   1.25175  0.19691 -0.04691 -1.17256  0.002879  0.001085  0.006015     2.653
   1.26813  0.21328 -0.04763 -1.16975  0.003008  0.001132  0.005720     2.657
   1.28457  0.22971 -0.04819 -1.16730  0.003126  0.001177  0.005499     2.656
   1.30115  0.24629 -0.04860 -1.16452  0.003259  0.001223  0.005206     2.665
   1.31783  0.26296 -0.04890 -1.16158  0.003397  0.001269  0.004912     2.676
   1.33448  0.27961 -0.04908 -1.15935  0.003502  0.001311  0.004783     2.672
   1.35110  0.29624 -0.04912 -1.15675  0.003628  0.001354  0.004561     2.680
   1.36778  0.31291 -0.04903 -1.15378  0.003770  0.001398  0.004289     2.697
   1.38450  0.32963 -0.04882 -1.15069  0.003913  0.001442  0.004037     2.713
   1.40120  0.34633 -0.04849 -1.14753  0.004056  0.001486  0.003803     2.730
   1.41786  0.36298 -0.04803 -1.14387  0.004226  0.001532  0.003507     2.759
   1.43449  0.37961 -0.04745 -1.13979  0.004418  0.001580  0.003183     2.797
   1.45114  0.39623 -0.04673 -1.13523  0.004640  0.001630  0.002822     2.846
   1.46777  0.41285 -0.04588 -1.13000  0.004915  0.001684  0.002394     2.918
   1.48439  0.42943 -0.04489 -1.12456  0.005217  0.001739  0.001982     2.999
   1.50097  0.44597 -0.04378 -1.11868  0.005597  0.001798  0.001518     3.113
   1.51751  0.46247 -0.04253 -1.11270  0.006052  0.001857  0.001048     3.259
   1.53401  0.47892 -0.04112 -1.10684  0.006617  0.001916  0.000578     3.454
   1.55050  0.49532 -0.03957 -1.10148  0.007313  0.001971  0.000149     3.711
   1.56702  0.51176 -0.03785 -1.09685  0.008143  0.002020 -0.000187     4.031
   1.58368  0.52831 -0.03597 -1.09284  0.009122  0.002064 -0.000401     4.419
   1.60055  0.54506 -0.03395 -1.08938  0.010219  0.002105 -0.000493     4.855
   1.61761  0.56199 -0.03181 -1.08655  0.011401  0.002140 -0.000507     5.326
   1.63483  0.57906 -0.02959 -1.08424  0.012641  0.002172 -0.000493     5.821
   1.65218  0.59626 -0.02732 -1.08236  0.013915  0.002199 -0.000471     6.329
   1.66962  0.61355 -0.02500 -1.08079  0.015196  0.002223 -0.000452     6.837
   1.68712  0.63090 -0.02268 -1.07946  0.016462  0.002244 -0.000438     7.335
   1.70462  0.64824 -0.02037 -1.07831  0.017688  0.002264 -0.000427     7.812
   1.72205  0.66552 -0.01809 -1.07728  0.018862  0.002283 -0.000417     8.263
   1.73939  0.68272 -0.01585 -1.07635  0.019972  0.002300 -0.000410     8.682
   1.75663  0.69982 -0.01367 -1.07548  0.020995  0.002318 -0.000403     9.059
   1.77378  0.71684 -0.01156 -1.07465  0.021920  0.002335 -0.000398     9.388
   1.79085  0.73379 -0.00953 -1.07384  0.022736  0.002352 -0.000393     9.665
   1.80784  0.75067 -0.00760 -1.07303  0.023435  0.002370 -0.000388     9.886
   1.82474  0.76746 -0.00576 -1.07221  0.024002  0.002389 -0.000384    10.045
   1.84154  0.78418 -0.00404 -1.07136  0.024430  0.002409 -0.000380    10.139
   1.85823  0.80079 -0.00245 -1.07048  0.024701  0.002431 -0.000376    10.161
   1.87481  0.81731 -0.00100 -1.06955  0.024807  0.002454 -0.000373    10.109
   1.89126  0.83371  0.00030 -1.06856  0.024726  0.002479 -0.000369     9.975
   1.90759  0.85000  0.00143 -1.06749  0.024448  0.002506 -0.000366     9.757
   1.92381  0.86619  0.00238 -1.06633  0.023957  0.002535 -0.000363     9.451
   1.93987  0.88223  0.00314 -1.06506  0.023248  0.002567 -0.000361     9.058
   1.95573  0.89808  0.00370 -1.06366  0.022301  0.002601 -0.000359     8.574
   1.97131  0.91366  0.00404 -1.06211  0.021098  0.002638 -0.000359     7.999
   1.98653  0.92887  0.00415 -1.06038  0.019608  0.002677 -0.000361     7.325
   2.00124  0.94358  0.00401 -1.04788  0.017929  0.002965 -0.000236     6.047
   2.01526  0.95760  0.00361 -1.02504  0.016090  0.003483 -0.000172     4.619
   2.02837  0.97069  0.00296 -1.00399  0.014106  0.003952  0.000162     3.569
   2.04040  0.98268  0.00205 -0.99241  0.012096  0.004202  0.000904     2.878
   2.05125  0.99348  0.00090 -0.99003  0.010237  0.004257  0.001873     2.405
   2.05783  1.00000  0.00000 -0.97826  0.010879  0.004494  0.001714     2.421
   2.05783  1.00010 -0.00002  0.97826  0.089978  0.016627  0.000000     5.412
   2.06446  1.00660 -0.00134  0.97288  0.083349  0.017292  0.000000     4.820
   2.07221  1.01423 -0.00264  0.96676  0.079941  0.018030  0.000000     4.434
   2.08127  1.02319 -0.00403  0.95910  0.076538  0.018947  0.000000     4.040
   2.09186  1.03367 -0.00552  0.94928  0.073017  0.020120  0.000000     3.629
   2.10423  1.04593 -0.00713  0.93809  0.069185  0.021457  0.000000     3.224
   2.11869  1.06029 -0.00888  0.92858  0.064844  0.022588  0.000000     2.871
   2.13560  1.07709 -0.01077  0.92043  0.060065  0.023547  0.000000     2.551
   2.15535  1.09674 -0.01283  0.91442  0.054927  0.024236  0.000000     2.266
   2.17845  1.11972 -0.01505  0.91136  0.049587  0.024574  0.000000     2.018
   2.20544  1.14661 -0.01745  0.91186  0.044276  0.024522  0.000000     1.806
   2.23698  1.17805 -0.02004  0.91604  0.039265  0.024109  0.000000     1.629
   2.27386  1.21481 -0.02282  0.92338  0.034797  0.023434  0.000000     1.485
   2.31695  1.25781 -0.02580  0.93277  0.031023  0.022636  0.000000     1.371
   2.36732  1.30808 -0.02897  0.94289  0.027972  0.021838  0.000000     1.281
   2.42619  1.36685 -0.03233  0.95264  0.025579  0.021121  0.000000     1.211
   2.49501  1.43557 -0.03588  0.96141  0.023738  0.020514  0.000000     1.157
   2.57543  1.51591 -0.03960  0.96896  0.022338  0.020017  0.000000     1.116
   2.66944  1.60984 -0.04346  0.97529  0.021281  0.019617  0.000000     1.085
   2.77931  1.71964 -0.04745  0.98051  0.020490  0.019298  0.000000     1.062
   2.90773  1.84799 -0.05153  0.98474  0.019903  0.019046  0.000000     1.045
   3.05782  1.99803 -0.05566  0.98923  0.019401  0.018785  0.000000     1.033
