#    s        x        y     Ue/Vinf    Dstar     Theta      Cf       H
   0.00000  1.00000  0.00000  0.99132  0.081530  0.017272 -0.000057     4.720
   0.00668  0.99360  0.00192  0.99294  0.078586  0.017085 -0.000056     4.600
   0.01807  0.98272  0.00530  0.99629  0.075718  0.016711 -0.000056     4.531
   0.03106  0.97032  0.00914  1.00039  0.072651  0.016272 -0.000056     4.465
   0.04516  0.95680  0.01317  1.00519  0.069615  0.015778 -0.000057     4.412
   0.06006  0.94246  0.01720  1.01070  0.066733  0.015237 -0.000059     4.380
   0.07565  0.92739  0.02118  1.01695  0.064038  0.014649 -0.000061     4.372
   0.09186  0.91167  0.02516  1.02401  0.061493  0.014017 -0.000065     4.387
   0.10852  0.89549  0.02915  1.03187  0.059049  0.013348 -0.000070     4.424
   0.12544  0.87905  0.03313  1.04050  0.056711  0.012649 -0.000077     4.483
   0.14250  0.86245  0.03708  1.04996  0.054481  0.011925 -0.000085     4.569
   0.15964  0.84577  0.04099  1.06028  0.052362  0.011176 -0.000094     4.685
   0.17681  0.82904  0.04484  1.07156  0.050348  0.010405 -0.000104     4.839
   0.19398  0.81229  0.04864  1.08388  0.048438  0.009612 -0.000115     5.039
   0.21115  0.79553  0.05238  1.09740  0.046625  0.008795 -0.000127     5.301
   0.22833  0.77875  0.05606  1.11231  0.044892  0.007952 -0.000140     5.645
   0.24546  0.76200  0.05967  1.12881  0.043222  0.007082 -0.000154     6.103
   0.26249  0.74535  0.06319  1.14719  0.041620  0.006182 -0.000173     6.733
   0.27941  0.72877  0.06660  1.16796  0.040075  0.005243 -0.000200     7.644
   0.29629  0.71222  0.06990  1.19220  0.038542  0.004237 -0.000243     9.097
   0.31313  0.69568  0.07308  1.22179  0.036935  0.003122 -0.000322    11.831
   0.32994  0.67915  0.07616  1.26326  0.035018  0.001698 -0.000346    20.629
   0.34670  0.66266  0.07911  1.25950  0.033859  0.001820 -0.000565    18.604
   0.36339  0.64620  0.08193  1.25976  0.032406  0.001816 -0.000567    17.850
   0.38005  0.62976  0.08462  1.25998  0.030836  0.001812 -0.000570    17.015
   0.39672  0.61329  0.08718  1.26020  0.029188  0.001809 -0.000572    16.131
   0.41338  0.59681  0.08962  1.26041  0.027473  0.001807 -0.000575    15.202
   0.42997  0.58038  0.09191  1.26063  0.025720  0.001805 -0.000578    14.251
   0.44649  0.56400  0.09406  1.26089  0.023966  0.001802 -0.000581    13.301
   0.46301  0.54760  0.09605  1.26122  0.022224  0.001798 -0.000586    12.361
   0.47954  0.53117  0.09790  1.26164  0.020489  0.001793 -0.000592    11.429
   0.49603  0.51477  0.09961  1.26216  0.018768  0.001786 -0.000599    10.508
   0.51242  0.49845  0.10115  1.26286  0.017097  0.001777 -0.000609     9.619
   0.52875  0.48218  0.10252  1.26379  0.015498  0.001766 -0.000622     8.776
   0.54509  0.46588  0.10371  1.26504  0.013976  0.001751 -0.000639     7.981
   0.56144  0.44957  0.10475  1.26668  0.012512  0.001733 -0.000662     7.221
   0.57774  0.43329  0.10561  1.26884  0.011127  0.001710 -0.000694     6.506
   0.59394  0.41711  0.10630  1.27168  0.009853  0.001683 -0.000736     5.855
   0.61007  0.40098  0.10679  1.27539  0.008698  0.001650 -0.000769     5.272
   0.62617  0.38489  0.10708  1.28014  0.007655  0.001611 -0.000749     4.751
   0.64227  0.36879  0.10718  1.28608  0.006747  0.001566 -0.000591     4.308
   0.65836  0.35270  0.10708  1.29304  0.005942  0.001517 -0.000209     3.916
   0.67432  0.33674  0.10680  1.30121  0.005242  0.001462  0.000433     3.585
   0.69010  0.32097  0.10629  1.31051  0.004659  0.001403  0.001284     3.322
   0.70583  0.30526  0.10554  1.32010  0.004226  0.001342  0.002123     3.149
   0.72167  0.28945  0.10454  1.32967  0.003873  0.001282  0.002961     3.021
   0.73747  0.27369  0.10335  1.33937  0.003539  0.001221  0.003983     2.898
   0.75302  0.25820  0.10195  1.34842  0.003244  0.001163  0.005105     2.790
   0.76841  0.24291  0.10027  1.35552  0.003027  0.001111  0.006007     2.725
   0.78386  0.22758  0.09831  1.36074  0.002870  0.001064  0.006603     2.697
   0.79934  0.21226  0.09610  1.36577  0.002709  0.001017  0.007321     2.664
   0.81467  0.19713  0.09366  1.37044  0.002541  0.000969  0.008250     2.621
   0.82983  0.18221  0.09095  1.37302  0.002414  0.000927  0.008870     2.605
   0.84493  0.16741  0.08797  1.37478  0.002300  0.000885  0.009388     2.600
   0.85995  0.15275  0.08473  1.37672  0.002171  0.000840  0.010145     2.584
   0.87475  0.13836  0.08125  1.37767  0.002054  0.000797  0.010805     2.578
   0.88915  0.12444  0.07757  1.37914  0.001904  0.000750  0.012179     2.540
   0.90314  0.11101  0.07364  1.37734  0.001790  0.000707  0.013076     2.531
   0.91683  0.09797  0.06946  1.37381  0.001710  0.000668  0.013201     2.561
   0.92993  0.08560  0.06517  1.37360  0.001568  0.000620  0.014904     2.530
   0.94206  0.07425  0.06087  1.37086  0.001415  0.000573  0.017568     2.470
   0.95332  0.06387  0.05649  1.36051  0.001340  0.000538  0.018004     2.491
   0.96371  0.05444  0.05215  1.35213  0.001262  0.000501  0.018420     2.520
   0.97301  0.04611  0.04801  1.34686  0.001156  0.000460  0.020210     2.512
   0.98119  0.03891  0.04412  1.34034  0.001045  0.000421  0.022972     2.482
   0.98837  0.03273  0.04046  1.32959  0.000951  0.000387  0.025557     2.461
   0.99470  0.02743  0.03701  1.31539  0.000868  0.000356  0.028234     2.442
   1.00030  0.02288  0.03375  1.29747  0.000791  0.000327  0.031378     2.416
   1.00527  0.01898  0.03066  1.27463  0.000730  0.000303  0.033638     2.408
   1.00973  0.01561  0.02774  1.24881  0.000666  0.000280  0.037112     2.381
   1.01375  0.01272  0.02495  1.21662  0.000615  0.000260  0.039469     2.370
   1.01739  0.01024  0.02228  1.18009  0.000566  0.000241  0.042277     2.353
   1.02073  0.00811  0.01971  1.13641  0.000520  0.000224  0.045668     2.322
   1.02380  0.00630  0.01724  1.08499  0.000491  0.000210  0.045439     2.336
   1.02664  0.00476  0.01485  1.02991  0.000446  0.000195  0.049631     2.289
   1.02926  0.00350  0.01255  0.96092  0.000423  0.000185  0.049040     2.283
   1.03171  0.00246  0.01033  0.88611  0.000399  0.000177  0.048961     2.258
   1.03400  0.00163  0.00819  0.80531  0.000387  0.000171  0.045253     2.269
   1.03618  0.00098  0.00612  0.72398  0.000369  0.000163  0.043042     2.260
   1.03826  0.00048  0.00410  0.63926  0.000353  0.000154  0.038728     2.284
   1.04024  0.00015  0.00214  0.55120  0.000319  0.000140  0.036537     2.287
   1.04215  0.00001  0.00024  0.43705  0.000286  0.000129  0.034122     2.221
   1.04400  0.00012 -0.00161  0.30245  0.000285  0.000127  0.022459     2.251
   1.04587  0.00052 -0.00343  0.15838  0.000263  0.000118  0.012451     2.230
   1.04780  0.00123 -0.00524 -0.01086  0.000263  0.000118  0.002233     2.230
   1.04986  0.00223 -0.00703 -0.15227  0.000316  0.000141  0.011868     2.239
   1.05205  0.00354 -0.00879 -0.28091  0.000321  0.000144  0.020993     2.225
   1.05438  0.00514 -0.01048 -0.39176  0.000363  0.000159  0.024224     2.280
   1.05689  0.00705 -0.01212 -0.47658  0.000411  0.000180  0.025670     2.283
   1.05960  0.00924 -0.01371 -0.54198  0.000472  0.000204  0.024682     2.314
   1.06254  0.01171 -0.01530 -0.60286  0.000502  0.000220  0.026571     2.277
   1.06576  0.01450 -0.01689 -0.65029  0.000576  0.000246  0.023354     2.346
   1.06931  0.01766 -0.01852 -0.69388  0.000615  0.000266  0.024107     2.310
   1.07328  0.02125 -0.02021 -0.73501  0.000671  0.000288  0.022997     2.328
   1.07773  0.02534 -0.02197 -0.77318  0.000725  0.000311  0.022329     2.330
   1.08275  0.03002 -0.02380 -0.81109  0.000774  0.000333  0.022036     2.325
   1.08845  0.03539 -0.02569 -0.84509  0.000844  0.000359  0.020566     2.349
   1.09493  0.04158 -0.02763 -0.87562  0.000917  0.000389  0.019351     2.361
   1.10237  0.04875 -0.02960 -0.90277  0.001003  0.000422  0.017950     2.377
   1.11095  0.05710 -0.03158 -0.92287  0.001126  0.000465  0.015630     2.421
   1.12083  0.06678 -0.03358 -0.94013  0.001239  0.000511  0.014363     2.427
   1.13204  0.07781 -0.03556 -0.95536  0.001360  0.000558  0.013184     2.436
   1.14448  0.09010 -0.03747 -0.96809  0.001490  0.000609  0.012035     2.448
   1.15809  0.10359 -0.03926 -0.97859  0.001626  0.000661  0.011018     2.459
   1.17266  0.11806 -0.04096 -0.98770  0.001756  0.000713  0.010244     2.464
   1.18781  0.13314 -0.04249 -0.99780  0.001851  0.000757  0.010022     2.444
   1.20335  0.14862 -0.04385 -1.00593  0.001974  0.000804  0.009369     2.455
   1.21923  0.16445 -0.04503 -1.01285  0.002092  0.000850  0.008843     2.461
   1.23540  0.18059 -0.04604 -1.01819  0.002218  0.000897  0.008273     2.474
   1.25175  0.19691 -0.04691 -1.02371  0.002317  0.000938  0.008007     2.469
   1.26813  0.21328 -0.04763 -1.02892  0.002412  0.000978  0.007754     2.466
   1.28457  0.22971 -0.04819 -1.03307  0.002520  0.001019  0.007396     2.474
   1.30115  0.24629 -0.04860 -1.03661  0.002626  0.001059  0.007065     2.481
   1.31783  0.26296 -0.04890 -1.04003  0.002722  0.001097  0.006833     2.482
   1.33448  0.27961 -0.04908 -1.04363  0.002802  0.001131  0.006701     2.477
   1.35110  0.29624 -0.04912 -1.04632  0.002902  0.001168  0.006437     2.484
   1.36778  0.31291 -0.04903 -1.04842  0.003005  0.001205  0.006165     2.494
   1.38450  0.32963 -0.04882 -1.05048  0.003098  0.001240  0.005970     2.497
   1.40120  0.34633 -0.04849 -1.05217  0.003193  0.001276  0.005767     2.503
   1.41786  0.36298 -0.04803 -1.05347  0.003291  0.001311  0.005559     2.510
   1.43449  0.37961 -0.04745 -1.05434  0.003395  0.001347  0.005336     2.521
   1.45114  0.39623 -0.04673 -1.05447  0.003515  0.001385  0.005055     2.538
   1.46777  0.41285 -0.04588 -1.05396  0.003647  0.001425  0.004760     2.560
   1.48439  0.42943 -0.04489 -1.05301  0.003783  0.001465  0.004474     2.582
   1.50097  0.44597 -0.04378 -1.05113  0.003948  0.001509  0.004121     2.616
   1.51751  0.46247 -0.04253 -1.04864  0.004129  0.001556  0.003756     2.654
   1.53401  0.47892 -0.04112 -1.04512  0.004354  0.001607  0.003322     2.709
   1.55050  0.49532 -0.03957 -1.04073  0.004626  0.001663  0.002843     2.782
   1.56702  0.51176 -0.03785 -1.03537  0.004970  0.001725  0.002299     2.882
   1.58368  0.52831 -0.03597 -1.02937  0.005397  0.001791  0.001728     3.014
   1.60055  0.54506 -0.03395 -1.02323  0.005891  0.001858  0.001199     3.171
   1.61761  0.56199 -0.03181 -1.01737  0.006434  0.001923  0.000752     3.346
   1.63483  0.57906 -0.02959 -1.01194  0.007020  0.001984  0.000391     3.538
   1.65218  0.59626 -0.02732 -1.00700  0.007637  0.002042  0.000112     3.740
   1.66962  0.61355 -0.02500 -1.00254  0.008273  0.002095 -0.000090     3.948
   1.68712  0.63090 -0.02268 -0.99847  0.008911  0.002146 -0.000226     4.152
   1.70462  0.64824 -0.02037 -0.99475  0.009539  0.002194 -0.000311     4.347
   1.72205  0.66552 -0.01809 -0.99134  0.010154  0.002240 -0.000362     4.532
   1.73939  0.68272 -0.01585 -0.98823  0.010745  0.002284 -0.000389     4.704
   1.75663  0.69982 -0.01367 -0.98538  0.011297  0.002326 -0.000401     4.858
   1.77378  0.71684 -0.01156 -0.98273  0.011800  0.002366 -0.000404     4.988
   1.79085  0.73379 -0.00953 -0.98025  0.012242  0.002405 -0.000402     5.091
   1.80784  0.75067 -0.00760 -0.97790  0.012623  0.002443 -0.000398     5.168
   1.82474  0.76746 -0.00576 -0.97564  0.012930  0.002480 -0.000392     5.213
   1.84154  0.78418 -0.00404 -0.97347  0.013155  0.002517 -0.000385     5.227
   1.85823  0.80079 -0.00245 -0.97135  0.013289  0.002553 -0.000379     5.205
   1.87481  0.81731 -0.00100 -0.96926  0.013321  0.002590 -0.000371     5.144
   1.89126  0.83371  0.00030 -0.96717  0.013240  0.002626 -0.000360     5.041
   1.90759  0.85000  0.00143 -0.96507  0.013038  0.002663 -0.000344     4.896
   1.92381  0.86619  0.00238 -0.96297  0.012709  0.002700 -0.000316     4.707
   1.93987  0.88223  0.00314 -0.96087  0.012258  0.002737 -0.000265     4.479
   1.95573  0.89808  0.00370 -0.95880  0.011679  0.002772 -0.000173     4.213
   1.97131  0.91366  0.00404 -0.95680  0.010978  0.002806 -0.000011     3.912
   1.98653  0.92887  0.00415 -0.95534  0.010153  0.002832  0.000260     3.585
   2.00124  0.94358  0.00401 -0.95525  0.009224  0.002836  0.000682     3.252
   2.01526  0.95760  0.00361 -0.95775  0.008224  0.002805  0.001294     2.931
   2.02837  0.97069  0.00296 -0.96440  0.007173  0.002725  0.002168     2.632
   2.04040  0.98268  0.00205 -0.97708  0.006105  0.002586  0.003413     2.361
   2.05125  0.99348  0.00090 -0.99872  0.005026  0.002378  0.005280     2.114
   2.05783  1.00000  0.00000 -0.99132  0.005464  0.002469  0.004385     2.213
   2.05783  1.00010 -0.00002  0.99132  0.086991  0.019736  0.000000     4.408
   2.06446  1.00660 -0.00133  0.98688  0.082399  0.020296  0.000000     4.060
   2.07221  1.01424 -0.00260  0.98198  0.080091  0.020905  0.000000     3.831
   2.08127  1.02320 -0.00393  0.97591  0.077775  0.021658  0.000000     3.591
   2.09186  1.03370 -0.00533  0.96854  0.075340  0.022572  0.000000     3.338
   2.10423  1.04598 -0.00681  0.96187  0.072559  0.023399  0.000000     3.101
   2.11869  1.06036 -0.00839  0.95541  0.069424  0.024197  0.000000     2.869
   2.13560  1.07718 -0.01006  0.94928  0.065915  0.024947  0.000000     2.642
   2.15535  1.09686 -0.01181  0.94388  0.062034  0.025598  0.000000     2.423
   2.17845  1.11988 -0.01365  0.93970  0.057828  0.026090  0.000000     2.216
   2.20544  1.14680 -0.01555  0.93722  0.053396  0.026372  0.000000     2.025
   2.23698  1.17829 -0.01749  0.93685  0.048888  0.026410  0.000000     1.851
   2.27386  1.21510 -0.01945  0.93874  0.044489  0.026207  0.000000     1.698
   2.31695  1.25816 -0.02138  0.94270  0.040385  0.025807  0.000000     1.565
   2.36732  1.30849 -0.02322  0.94830  0.036726  0.025275  0.000000     1.453
   2.42619  1.36734 -0.02492  0.95478  0.033591  0.024692  0.000000     1.360
   2.49501  1.43614 -0.02637  0.96144  0.030987  0.024125  0.000000     1.284
   2.57543  1.51656 -0.02747  0.96776  0.028870  0.023614  0.000000     1.223
   2.66944  1.61056 -0.02808  0.97341  0.027171  0.023172  0.000000     1.173
   2.77931  1.72043 -0.02804  0.97832  0.025825  0.022802  0.000000     1.133
   2.90773  1.84885 -0.02715  0.98247  0.024772  0.022500  0.000000     1.101
   3.05782  1.99893 -0.02516  0.98807  0.023787  0.022105  0.000000     1.076
