#    s        x        y     Ue/Vinf    Dstar     Theta      Cf       H
   0.00000  1.00000  0.00000  0.95031  0.065417  0.013333 -0.000062     4.906
   0.00668  0.99360  0.00192  0.95251  0.062241  0.013124 -0.000062     4.743
   0.01807  0.98272  0.00530  0.95721  0.059527  0.012698 -0.000063     4.688
   0.03106  0.97032  0.00914  0.96305  0.056735  0.012194 -0.000066     4.653
   0.04516  0.95680  0.01317  0.97002  0.054073  0.011623 -0.000070     4.652
   0.06006  0.94246  0.01720  0.97815  0.051642  0.010994 -0.000075     4.697
   0.07565  0.92739  0.02118  0.98752  0.049468  0.010309 -0.000083     4.798
   0.09186  0.91167  0.02516  0.99825  0.047498  0.009571 -0.000092     4.963
   0.10852  0.89549  0.02915  1.01037  0.045669  0.008788 -0.000102     5.197
   0.12544  0.87905  0.03313  1.02395  0.043967  0.007967 -0.000113     5.519
   0.14250  0.86245  0.03708  1.03913  0.042376  0.007110 -0.000125     5.960
   0.15964  0.84577  0.04099  1.05618  0.040875  0.006216 -0.000140     6.576
   0.17681  0.82904  0.04484  1.07553  0.039430  0.005277 -0.000162     7.472
   0.19398  0.81229  0.04864  1.09799  0.037994  0.004277 -0.000196     8.883
   0.21115  0.79553  0.05238  1.12539  0.036478  0.003167 -0.000259    11.517
   0.22833  0.77875  0.05606  1.16341  0.034645  0.001768 -0.000295    19.593
   0.24546  0.76200  0.05967  1.16121  0.033479  0.001845 -0.000450    18.150
   0.26249  0.74535  0.06319  1.16142  0.032034  0.001841 -0.000452    17.401
   0.27941  0.72877  0.06660  1.16159  0.030462  0.001839 -0.000453    16.569
   0.29629  0.71222  0.06990  1.16175  0.028816  0.001837 -0.000455    15.688
   0.31313  0.69568  0.07308  1.16191  0.027112  0.001835 -0.000457    14.772
   0.32994  0.67915  0.07616  1.16208  0.025386  0.001834 -0.000460    13.844
   0.34670  0.66266  0.07911  1.16229  0.023639  0.001832 -0.000463    12.907
   0.36339  0.64620  0.08193  1.16255  0.021905  0.001829 -0.000466    11.980
   0.38005  0.62976  0.08462  1.16289  0.020203  0.001824 -0.000471    11.076
   0.39672  0.61329  0.08718  1.16336  0.018540  0.001818 -0.000477    10.199
   0.41338  0.59681  0.08962  1.16397  0.016908  0.001809 -0.000486     9.344
   0.42997  0.58038  0.09191  1.16479  0.015330  0.001799 -0.000497     8.523
   0.44649  0.56400  0.09406  1.16588  0.013833  0.001785 -0.000511     7.751
   0.46301  0.54760  0.09605  1.16735  0.012424  0.001767 -0.000530     7.031
   0.47954  0.53117  0.09790  1.16927  0.011096  0.001745 -0.000556     6.358
   0.49603  0.51477  0.09961  1.17179  0.009858  0.001719 -0.000589     5.737
   0.51242  0.49845  0.10115  1.17505  0.008722  0.001687 -0.000606     5.171
   0.52875  0.48218  0.10252  1.17919  0.007725  0.001650 -0.000571     4.683
   0.54509  0.46588  0.10371  1.18429  0.006852  0.001607 -0.000424     4.264
   0.56144  0.44957  0.10475  1.19021  0.006082  0.001561 -0.000115     3.897
   0.57774  0.43329  0.10561  1.19711  0.005416  0.001509  0.000363     3.590
   0.59394  0.41711  0.10630  1.20490  0.004863  0.001452  0.000961     3.348
   0.61007  0.40098  0.10679  1.21313  0.004416  0.001394  0.001608     3.167
   0.62617  0.38489  0.10708  1.22150  0.004034  0.001336  0.002318     3.020
   0.64227  0.36879  0.10718  1.22927  0.003738  0.001280  0.002953     2.920
   0.65836  0.35270  0.10708  1.23675  0.003468  0.001226  0.003651     2.830
   0.67432  0.33674  0.10680  1.24362  0.003225  0.001173  0.004400     2.750
   0.69010  0.32097  0.10629  1.24946  0.003012  0.001123  0.005156     2.682
   0.70583  0.30526  0.10554  1.25338  0.002858  0.001080  0.005689     2.647
   0.72167  0.28945  0.10454  1.25613  0.002734  0.001039  0.006077     2.631
   0.73747  0.27369  0.10335  1.25961  0.002566  0.000994  0.006874     2.582
   0.75302  0.25820  0.10195  1.26162  0.002411  0.000951  0.007721     2.535
   0.76841  0.24291  0.10027  1.26117  0.002292  0.000914  0.008365     2.508
   0.78386  0.22758  0.09831  1.25846  0.002209  0.000881  0.008672     2.508
   0.79934  0.21226  0.09610  1.25604  0.002101  0.000844  0.009285     2.489
   0.81467  0.19713  0.09366  1.25211  0.002003  0.000809  0.009841     2.476
   0.82983  0.18221  0.09095  1.24713  0.001902  0.000774  0.010524     2.458
   0.84493  0.16741  0.08797  1.23976  0.001826  0.000742  0.010840     2.463
   0.85995  0.15275  0.08473  1.23236  0.001735  0.000706  0.011410     2.457
   0.87475  0.13836  0.08125  1.22366  0.001649  0.000671  0.011902     2.458
   0.88915  0.12444  0.07757  1.21488  0.001527  0.000631  0.013248     2.422
   0.90314  0.11101  0.07364  1.20085  0.001446  0.000597  0.013838     2.421
   0.91683  0.09797  0.06946  1.18535  0.001371  0.000563  0.014204     2.435
   0.92993  0.08560  0.06517  1.17034  0.001276  0.000524  0.015112     2.432
   0.94206  0.07425  0.06087  1.15328  0.001149  0.000484  0.017517     2.375
   0.95332  0.06387  0.05649  1.12659  0.001081  0.000455  0.018098     2.379
   0.96371  0.05444  0.05215  1.09966  0.001019  0.000425  0.018394     2.399
   0.97301  0.04611  0.04801  1.07457  0.000938  0.000391  0.019558     2.396
   0.98119  0.03891  0.04412  1.04771  0.000855  0.000359  0.021205     2.382
   0.98837  0.03273  0.04046  1.01667  0.000778  0.000329  0.023071     2.361
   0.99470  0.02743  0.03701  0.98028  0.000713  0.000304  0.024619     2.346
   1.00030  0.02288  0.03375  0.93919  0.000656  0.000281  0.025995     2.332
   1.00527  0.01898  0.03066  0.89359  0.000606  0.000261  0.026910     2.325
   1.00973  0.01561  0.02774  0.84398  0.000559  0.000242  0.027850     2.314
   1.01375  0.01272  0.02495  0.78786  0.000514  0.000225  0.028922     2.289
   1.01739  0.01024  0.02228  0.72544  0.000484  0.000210  0.027984     2.299
   1.02073  0.00811  0.01971  0.65978  0.000444  0.000195  0.028123     2.282
   1.02380  0.00630  0.01724  0.58387  0.000411  0.000182  0.027318     2.264
   1.02664  0.00476  0.01485  0.49870  0.000387  0.000172  0.024982     2.251
   1.02926  0.00350  0.01255  0.40832  0.000370  0.000165  0.021401     2.248
   1.03171  0.00246  0.01033  0.31684  0.000344  0.000151  0.017316     2.277
   1.03400  0.00163  0.00819  0.20933  0.000310  0.000140  0.013302     2.213
   1.03618  0.00098  0.00612  0.09564  0.000335  0.000150  0.005303     2.230
   1.03826  0.00048  0.00410 -0.00163  0.000335  0.000150  0.000534     2.230
   1.04024  0.00015  0.00214 -0.14495  0.000240  0.000107  0.012620     2.236
   1.04215  0.00001  0.00024 -0.29563  0.000265  0.000117  0.022472     2.259
   1.04400  0.00012 -0.00161 -0.44798  0.000248  0.000113  0.037585     2.195
   1.04587  0.00052 -0.00343 -0.60865  0.000250  0.000112  0.049122     2.245
   1.04780  0.00123 -0.00524 -0.73829  0.000278  0.000122  0.050421     2.285
   1.04986  0.00223 -0.00703 -0.84845  0.000300  0.000132  0.055167     2.275
   1.05205  0.00354 -0.00879 -0.94081  0.000332  0.000144  0.052753     2.306
   1.05438  0.00514 -0.01048 -1.00212  0.000386  0.000163  0.045960     2.368
   1.05689  0.00705 -0.01212 -1.03923  0.000449  0.000186  0.039001     2.412
   1.05960  0.00924 -0.01371 -1.06049  0.000521  0.000212  0.032745     2.457
   1.06254  0.01171 -0.01530 -1.07767  0.000579  0.000236  0.030122     2.450
   1.06576  0.01450 -0.01689 -1.09403  0.000634  0.000260  0.028112     2.443
   1.06931  0.01766 -0.01852 -1.10760  0.000698  0.000284  0.025514     2.457
   1.07328  0.02125 -0.02021 -1.11968  0.000760  0.000309  0.023565     2.461
   1.07773  0.02534 -0.02197 -1.13278  0.000814  0.000333  0.022556     2.447
   1.08275  0.03002 -0.02380 -1.14638  0.000872  0.000357  0.021476     2.441
   1.08845  0.03539 -0.02569 -1.15776  0.000946  0.000385  0.019636     2.458
   1.09493  0.04158 -0.02763 -1.16828  0.001021  0.000414  0.018248     2.464
   1.10237  0.04875 -0.02960 -1.17460  0.001126  0.000450  0.015991     2.501
   1.11095  0.05710 -0.03158 -1.17480  0.001269  0.000495  0.013237     2.563
   1.12083  0.06678 -0.03358 -1.17233  0.001414  0.000544  0.011397     2.598
   1.13204  0.07781 -0.03556 -1.17065  0.001537  0.000593  0.010541     2.592
   1.14448  0.09010 -0.03747 -1.16712  0.001692  0.000647  0.009269     2.617
   1.15809  0.10359 -0.03926 -1.16254  0.001855  0.000703  0.008212     2.639
   1.17266  0.11806 -0.04096 -1.15875  0.001995  0.000757  0.007631     2.636
   1.18781  0.13314 -0.04249 -1.15677  0.002106  0.000806  0.007415     2.613
   1.20335  0.14862 -0.04385 -1.15466  0.002233  0.000855  0.006984     2.613
   1.21923  0.16445 -0.04503 -1.15254  0.002362  0.000903  0.006570     2.616
   1.23540  0.18059 -0.04604 -1.14962  0.002508  0.000952  0.006047     2.634
   1.25175  0.19691 -0.04691 -1.14816  0.002606  0.000995  0.005916     2.619
   1.26813  0.21328 -0.04763 -1.14626  0.002725  0.001039  0.005621     2.623
   1.28457  0.22971 -0.04819 -1.14461  0.002834  0.001080  0.005401     2.623
   1.30115  0.24629 -0.04860 -1.14211  0.002970  0.001125  0.005034     2.641
   1.31783  0.26296 -0.04890 -1.14027  0.003076  0.001165  0.004859     2.640
   1.33448  0.27961 -0.04908 -1.13854  0.003178  0.001204  0.004697     2.640
   1.35110  0.29624 -0.04912 -1.13643  0.003296  0.001244  0.004470     2.649
   1.36778  0.31291 -0.04903 -1.13401  0.003423  0.001285  0.004220     2.664
   1.38450  0.32963 -0.04882 -1.13145  0.003551  0.001325  0.003988     2.679
   1.40120  0.34633 -0.04849 -1.12869  0.003683  0.001366  0.003757     2.696
   1.41786  0.36298 -0.04803 -1.12536  0.003839  0.001409  0.003468     2.725
   1.43449  0.37961 -0.04745 -1.12171  0.004007  0.001453  0.003177     2.758
   1.45114  0.39623 -0.04673 -1.11739  0.004210  0.001500  0.002828     2.806
   1.46777  0.41285 -0.04588 -1.11245  0.004453  0.001550  0.002433     2.872
   1.48439  0.42943 -0.04489 -1.10714  0.004726  0.001602  0.002038     2.949
   1.50097  0.44597 -0.04378 -1.10125  0.005076  0.001658  0.001580     3.061
   1.51751  0.46247 -0.04253 -1.09516  0.005498  0.001715  0.001114     3.205
   1.53401  0.47892 -0.04112 -1.08914  0.006022  0.001772  0.000648     3.398
   1.55050  0.49532 -0.03957 -1.08356  0.006673  0.001826  0.000214     3.654
   1.56702  0.51176 -0.03785 -1.07875  0.007471  0.001874 -0.000136     3.986
   1.58368  0.52831 -0.03597 -1.07463  0.008422  0.001917 -0.000361     4.393
   1.60055  0.54506 -0.03395 -1.07111  0.009485  0.001956 -0.000455     4.848
   1.61761  0.56199 -0.03181 -1.06826  0.010638  0.001990 -0.000470     5.345
   1.63483  0.57906 -0.02959 -1.06597  0.011857  0.002019 -0.000455     5.872
   1.65218  0.59626 -0.02732 -1.06412  0.013109  0.002045 -0.000434     6.411
   1.66962  0.61355 -0.02500 -1.06261  0.014374  0.002067 -0.000417     6.954
   1.68712  0.63090 -0.02268 -1.06133  0.015625  0.002087 -0.000404     7.488
   1.70462  0.64824 -0.02037 -1.06023  0.016836  0.002105 -0.000393     7.999
   1.72205  0.66552 -0.01809 -1.05926  0.017998  0.002122 -0.000385     8.483
   1.73939  0.68272 -0.01585 -1.05839  0.019097  0.002137 -0.000378     8.934
   1.75663  0.69982 -0.01367 -1.05757  0.020106  0.002153 -0.000372     9.338
   1.77378  0.71684 -0.01156 -1.05679  0.021018  0.002169 -0.000367     9.692
   1.79085  0.73379 -0.00953 -1.05602  0.021818  0.002185 -0.000363     9.986
   1.80784  0.75067 -0.00760 -1.05524  0.022499  0.002201 -0.000359    10.220
   1.82474  0.76746 -0.00576 -1.05445  0.023045  0.002219 -0.000355    10.385
   1.84154  0.78418 -0.00404 -1.05363  0.023445  0.002238 -0.000351    10.476
   1.85823  0.80079 -0.00245 -1.05277  0.023682  0.002258 -0.000348    10.487
   1.87481  0.81731 -0.00100 -1.05185  0.023743  0.002280 -0.000344    10.412
   1.89126  0.83371  0.00030 -1.05086  0.023604  0.002305 -0.000341    10.242
   1.90759  0.85000  0.00143 -1.04977  0.023250  0.002331 -0.000338     9.974
   1.92381  0.86619  0.00238 -1.04857  0.022656  0.002360 -0.000335     9.599
   1.93987  0.88223  0.00314 -1.04722  0.021803  0.002392 -0.000333     9.114
   1.95573  0.89808  0.00370 -1.04570  0.020639  0.002428 -0.000332     8.501
   1.97131  0.91366  0.00404 -1.02794  0.019311  0.002859 -0.000232     6.754
   1.98653  0.92887  0.00415 -1.00178  0.017735  0.003504 -0.000198     5.061
   2.00124  0.94358  0.00401 -0.97556  0.015938  0.004156 -0.000008     3.835
   2.01526  0.95760  0.00361 -0.95816  0.014001  0.004586  0.000504     3.053
   2.02837  0.97069  0.00296 -0.94994  0.012061  0.004785  0.001203     2.521
   2.04040  0.98268  0.00205 -0.95124  0.010213  0.004767  0.002051     2.142
   2.05125  0.99348  0.00090 -0.96238  0.008518  0.004564  0.003088     1.866
   2.05783  1.00000  0.00000 -0.95031  0.009003  0.004804  0.002860     1.874
   2.05783  1.00010 -0.00002  0.95031  0.074420  0.018135  0.000000     4.104
   2.06446  1.00660 -0.00133  0.94333  0.068675  0.018936  0.000000     3.627
   2.07221  1.01423 -0.00264  0.93583  0.065700  0.019781  0.000000     3.321
   2.08127  1.02319 -0.00403  0.92954  0.062600  0.020485  0.000000     3.056
   2.09186  1.03367 -0.00551  0.92359  0.059339  0.021144  0.000000     2.806
   2.10423  1.04594 -0.00712  0.91825  0.055830  0.021726  0.000000     2.570
   2.11869  1.06029 -0.00886  0.91395  0.052059  0.022185  0.000000     2.347
   2.13560  1.07709 -0.01074  0.91120  0.048064  0.022469  0.000000     2.139
   2.15535  1.09674 -0.01278  0.91051  0.043937  0.022537  0.000000     1.950
   2.17845  1.11973 -0.01499  0.91228  0.039816  0.022368  0.000000     1.780
   2.20544  1.14662 -0.01737  0.91664  0.035866  0.021976  0.000000     1.632
   2.23698  1.17806 -0.01994  0.92331  0.032247  0.021414  0.000000     1.506
   2.27386  1.21483 -0.02268  0.93162  0.029078  0.020761  0.000000     1.401
   2.31695  1.25782 -0.02562  0.94070  0.026411  0.020095  0.000000     1.314
   2.36732  1.30810 -0.02873  0.94974  0.024234  0.019475  0.000000     1.244
   2.42619  1.36688 -0.03203  0.95813  0.022493  0.018931  0.000000     1.188
   2.49501  1.43560 -0.03549  0.96560  0.021119  0.018471  0.000000     1.143
   2.57543  1.51595 -0.03909  0.97205  0.020047  0.018089  0.000000     1.108
   2.66944  1.60988 -0.04282  0.97752  0.019217  0.017776  0.000000     1.081
   2.77931  1.71968 -0.04665  0.98208  0.018581  0.017523  0.000000     1.060
   2.90773  1.84804 -0.05052  0.98582  0.018098  0.017319  0.000000     1.045
   3.05782  1.99809 -0.05439  0.98979  0.017681  0.017108  0.000000     1.034
