#    s        x        y     Ue/Vinf    Dstar     Theta      Cf       H
   0.00000  1.00000  0.00000  0.95742  0.067898  0.012719 -0.000066     5.338
   0.00668  0.99360  0.00192  0.95963  0.064690  0.012508 -0.000067     5.172
   0.01807  0.98272  0.00530  0.96423  0.061959  0.012088 -0.000069     5.125
   0.03106  0.97032  0.00914  0.96992  0.059142  0.011594 -0.000072     5.101
   0.04516  0.95680  0.01317  0.97666  0.056442  0.011037 -0.000077     5.114
   0.06006  0.94246  0.01720  0.98448  0.053961  0.010427 -0.000082     5.175
   0.07565  0.92739  0.02118  0.99344  0.051719  0.009766 -0.000089     5.296
   0.09186  0.91167  0.02516  1.00365  0.049667  0.009056 -0.000097     5.484
   0.10852  0.89549  0.02915  1.01515  0.047739  0.008304 -0.000106     5.749
   0.12544  0.87905  0.03313  1.02798  0.045923  0.007518 -0.000116     6.109
   0.14250  0.86245  0.03708  1.04230  0.044205  0.006698 -0.000128     6.599
   0.15964  0.84577  0.04099  1.05835  0.042565  0.005844 -0.000145     7.283
   0.17681  0.82904  0.04484  1.07650  0.040971  0.004950 -0.000168     8.277
   0.19398  0.81229  0.04864  1.09764  0.039374  0.003993 -0.000206     9.862
   0.21115  0.79553  0.05238  1.12339  0.037690  0.002930 -0.000278    12.862
   0.22833  0.77875  0.05606  1.15297  0.035841  0.001838 -0.000446    19.503
   0.24546  0.76200  0.05967  1.15320  0.034474  0.001833 -0.000448    18.806
   0.26249  0.74535  0.06319  1.15336  0.032908  0.001831 -0.000450    17.976
   0.27941  0.72877  0.06660  1.15349  0.031235  0.001830 -0.000452    17.073
   0.29629  0.71222  0.06990  1.15361  0.029492  0.001829 -0.000453    16.126
   0.31313  0.69568  0.07308  1.15373  0.027706  0.001828 -0.000455    15.153
   0.32994  0.67915  0.07616  1.15387  0.025898  0.001828 -0.000457    14.170
   0.34670  0.66266  0.07911  1.15404  0.024085  0.001826 -0.000460    13.188
   0.36339  0.64620  0.08193  1.15426  0.022288  0.001824 -0.000464    12.218
   0.38005  0.62976  0.08462  1.15457  0.020527  0.001820 -0.000469    11.276
   0.39672  0.61329  0.08718  1.15499  0.018807  0.001815 -0.000475    10.363
   0.41338  0.59681  0.08962  1.15556  0.017131  0.001807 -0.000483     9.480
   0.42997  0.58038  0.09191  1.15633  0.015507  0.001797 -0.000494     8.631
   0.44649  0.56400  0.09406  1.15738  0.013974  0.001783 -0.000508     7.836
   0.46301  0.54760  0.09605  1.15880  0.012529  0.001766 -0.000528     7.095
   0.47954  0.53117  0.09790  1.16069  0.011177  0.001744 -0.000554     6.408
   0.49603  0.51477  0.09961  1.16316  0.009907  0.001718 -0.000587     5.767
   0.51242  0.49845  0.10115  1.16638  0.008751  0.001686 -0.000602     5.189
   0.52875  0.48218  0.10252  1.17051  0.007742  0.001649 -0.000562     4.695
   0.54509  0.46588  0.10371  1.17560  0.006848  0.001606 -0.000401     4.264
   0.56144  0.44957  0.10475  1.18153  0.006070  0.001559 -0.000078     3.893
   0.57774  0.43329  0.10561  1.18846  0.005398  0.001507  0.000416     3.582
   0.59394  0.41711  0.10630  1.19629  0.004841  0.001450  0.001025     3.339
   0.61007  0.40098  0.10679  1.20455  0.004391  0.001391  0.001683     3.156
   0.62617  0.38489  0.10708  1.21288  0.004013  0.001332  0.002383     3.012
   0.64227  0.36879  0.10718  1.22067  0.003714  0.001276  0.003031     2.910
   0.65836  0.35270  0.10708  1.22805  0.003448  0.001222  0.003716     2.822
   0.67432  0.33674  0.10680  1.23481  0.003207  0.001169  0.004453     2.744
   0.69010  0.32097  0.10629  1.24058  0.002993  0.001119  0.005219     2.675
   0.70583  0.30526  0.10554  1.24441  0.002837  0.001075  0.005766     2.639
   0.72167  0.28945  0.10454  1.24700  0.002712  0.001034  0.006171     2.621
   0.73747  0.27369  0.10335  1.25006  0.002551  0.000990  0.006919     2.577
   0.75302  0.25820  0.10195  1.25197  0.002393  0.000947  0.007804     2.527
   0.76841  0.24291  0.10027  1.25105  0.002278  0.000910  0.008402     2.504
   0.78386  0.22758  0.09831  1.24796  0.002200  0.000878  0.008648     2.507
   0.79934  0.21226  0.09610  1.24555  0.002089  0.000840  0.009300     2.486
   0.81467  0.19713  0.09366  1.24161  0.001983  0.000804  0.009979     2.465
   0.82983  0.18221  0.09095  1.23566  0.001892  0.000771  0.010523     2.455
   0.84493  0.16741  0.08797  1.22803  0.001815  0.000738  0.010854     2.459
   0.85995  0.15275  0.08473  1.22029  0.001723  0.000703  0.011445     2.452
   0.87475  0.13836  0.08125  1.21112  0.001633  0.000667  0.012010     2.449
   0.88915  0.12444  0.07757  1.20126  0.001521  0.000628  0.013164     2.422
   0.90314  0.11101  0.07364  1.18716  0.001429  0.000593  0.014019     2.409
   0.91683  0.09797  0.06946  1.17003  0.001368  0.000561  0.014026     2.437
   0.92993  0.08560  0.06517  1.15513  0.001266  0.000521  0.015098     2.428
   0.94206  0.07425  0.06087  1.13719  0.001136  0.000480  0.017628     2.366
   0.95332  0.06387  0.05649  1.10863  0.001070  0.000452  0.018214     2.368
   0.96371  0.05444  0.05215  1.07997  0.001020  0.000424  0.017936     2.405
   0.97301  0.04611  0.04801  1.05562  0.000931  0.000389  0.019405     2.395
   0.98119  0.03891  0.04412  1.02736  0.000840  0.000356  0.021642     2.362
   0.98837  0.03273  0.04046  0.99273  0.000777  0.000329  0.022568     2.363
   0.99470  0.02743  0.03701  0.95596  0.000708  0.000302  0.024408     2.339
   1.00030  0.02288  0.03375  0.91318  0.000653  0.000280  0.025528     2.329
   1.00527  0.01898  0.03066  0.86628  0.000602  0.000260  0.026530     2.318
   1.00973  0.01561  0.02774  0.81598  0.000560  0.000241  0.026636     2.326
   1.01375  0.01272  0.02495  0.76083  0.000505  0.000221  0.028616     2.286
   1.01739  0.01024  0.02228  0.69310  0.000473  0.000208  0.028315     2.268
   1.02073  0.00811  0.01971  0.62224  0.000451  0.000197  0.026155     2.289
   1.02380  0.00630  0.01724  0.55049  0.000411  0.000180  0.025482     2.283
   1.02664  0.00476  0.01485  0.46077  0.000377  0.000171  0.025118     2.199
   1.02926  0.00350  0.01255  0.37153  0.000384  0.000165  0.017592     2.333
   1.03171  0.00246  0.01033  0.27743  0.000318  0.000145  0.018108     2.189
   1.03400  0.00163  0.00819  0.16395  0.000349  0.000155  0.009146     2.258
   1.03618  0.00098  0.00612  0.06058  0.000301  0.000135  0.004029     2.230
   1.03826  0.00048  0.00410 -0.06048  0.000301  0.000135  0.004023     2.230
   1.04024  0.00015  0.00214 -0.18412  0.000286  0.000129  0.012944     2.222
   1.04215  0.00001  0.00024 -0.34880  0.000235  0.000107  0.030842     2.187
   1.04400  0.00012 -0.00161 -0.50380  0.000259  0.000113  0.036806     2.292
   1.04587  0.00052 -0.00343 -0.65605  0.000247  0.000113  0.054850     2.192
   1.04780  0.00123 -0.00524 -0.79023  0.000279  0.000121  0.052715     2.307
   1.04986  0.00223 -0.00703 -0.89686  0.000300  0.000132  0.057396     2.274
   1.05205  0.00354 -0.00879 -0.98401  0.000338  0.000145  0.053439     2.323
   1.05438  0.00514 -0.01048 -1.04252  0.000388  0.000164  0.047259     2.367
   1.05689  0.00705 -0.01212 -1.07910  0.000449  0.000186  0.040351     2.413
   1.05960  0.00924 -0.01371 -1.09594  0.000532  0.000214  0.032129     2.486
   1.06254  0.01171 -0.01530 -1.11312  0.000578  0.000237  0.031418     2.443
   1.06576  0.01450 -0.01689 -1.12441  0.000653  0.000263  0.026917     2.484
   1.06931  0.01766 -0.01852 -1.13508  0.000711  0.000287  0.025176     2.475
   1.07328  0.02125 -0.02021 -1.14669  0.000766  0.000311  0.023930     2.462
   1.07773  0.02534 -0.02197 -1.15861  0.000823  0.000335  0.022635     2.456
   1.08275  0.03002 -0.02380 -1.16903  0.000892  0.000362  0.020858     2.466
   1.08845  0.03539 -0.02569 -1.17999  0.000954  0.000388  0.019816     2.460
   1.09493  0.04158 -0.02763 -1.18803  0.001041  0.000419  0.017815     2.484
   1.10237  0.04875 -0.02960 -1.19401  0.001136  0.000454  0.016087     2.503
   1.11095  0.05710 -0.03158 -1.19204  0.001295  0.000501  0.012846     2.587
   1.12083  0.06678 -0.03358 -1.18964  0.001424  0.000548  0.011498     2.599
   1.13204  0.07781 -0.03556 -1.18596  0.001569  0.000599  0.010184     2.618
   1.14448  0.09010 -0.03747 -1.18144  0.001720  0.000653  0.009070     2.635
   1.15809  0.10359 -0.03926 -1.17598  0.001884  0.000709  0.008040     2.656
   1.17266  0.11806 -0.04096 -1.17125  0.002029  0.000764  0.007440     2.656
   1.18781  0.13314 -0.04249 -1.16843  0.002141  0.000814  0.007230     2.632
   1.20335  0.14862 -0.04385 -1.16576  0.002267  0.000863  0.006844     2.628
   1.21923  0.16445 -0.04503 -1.16276  0.002404  0.000912  0.006375     2.637
   1.23540  0.18059 -0.04604 -1.15949  0.002545  0.000961  0.005921     2.649
   1.25175  0.19691 -0.04691 -1.15752  0.002646  0.001004  0.005782     2.634
   1.26813  0.21328 -0.04763 -1.15526  0.002764  0.001048  0.005506     2.637
   1.28457  0.22971 -0.04819 -1.15320  0.002876  0.001090  0.005279     2.638
   1.30115  0.24629 -0.04860 -1.15075  0.003001  0.001133  0.004987     2.648
   1.31783  0.26296 -0.04890 -1.14818  0.003127  0.001176  0.004715     2.659
   1.33448  0.27961 -0.04908 -1.14627  0.003224  0.001215  0.004588     2.654
   1.35110  0.29624 -0.04912 -1.14395  0.003341  0.001255  0.004374     2.663
   1.36778  0.31291 -0.04903 -1.14122  0.003473  0.001296  0.004112     2.680
   1.38450  0.32963 -0.04882 -1.13836  0.003606  0.001337  0.003872     2.697
   1.40120  0.34633 -0.04849 -1.13542  0.003738  0.001378  0.003651     2.713
   1.41786  0.36298 -0.04803 -1.13194  0.003895  0.001421  0.003372     2.741
   1.43449  0.37961 -0.04745 -1.12800  0.004073  0.001466  0.003062     2.779
   1.45114  0.39623 -0.04673 -1.12354  0.004279  0.001513  0.002717     2.828
   1.46777  0.41285 -0.04588 -1.11839  0.004534  0.001564  0.002311     2.899
   1.48439  0.42943 -0.04489 -1.11294  0.004819  0.001617  0.001913     2.981
   1.50097  0.44597 -0.04378 -1.10702  0.005177  0.001672  0.001464     3.096
   1.51751  0.46247 -0.04253 -1.10096  0.005611  0.001729  0.001006     3.246
   1.53401  0.47892 -0.04112 -1.09501  0.006155  0.001785  0.000547     3.448
   1.55050  0.49532 -0.03957 -1.08959  0.006829  0.001837  0.000130     3.717
   1.56702  0.51176 -0.03785 -1.08494  0.007642  0.001884 -0.000192     4.057
   1.58368  0.52831 -0.03597 -1.08094  0.008605  0.001926 -0.000389     4.469
   1.60055  0.54506 -0.03395 -1.07756  0.009688  0.001963 -0.000465     4.934
   1.61761  0.56199 -0.03181 -1.07482  0.010857  0.001996 -0.000471     5.439
   1.63483  0.57906 -0.02959 -1.07263  0.012085  0.002024 -0.000454     5.970
   1.65218  0.59626 -0.02732 -1.07087  0.013348  0.002048 -0.000433     6.516
   1.66962  0.61355 -0.02500 -1.06941  0.014618  0.002070 -0.000416     7.062
   1.68712  0.63090 -0.02268 -1.06818  0.015870  0.002089 -0.000403     7.597
   1.70462  0.64824 -0.02037 -1.06712  0.017081  0.002106 -0.000394     8.109
   1.72205  0.66552 -0.01809 -1.06618  0.018239  0.002123 -0.000386     8.592
   1.73939  0.68272 -0.01585 -1.06533  0.019330  0.002138 -0.000379     9.040
   1.75663  0.69982 -0.01367 -1.06453  0.020329  0.002154 -0.000374     9.440
   1.77378  0.71684 -0.01156 -1.06375  0.021226  0.002169 -0.000369     9.786
   1.79085  0.73379 -0.00953 -1.06299  0.022009  0.002185 -0.000364    10.073
   1.80784  0.75067 -0.00760 -1.06221  0.022669  0.002202 -0.000360    10.296
   1.82474  0.76746 -0.00576 -1.06142  0.023189  0.002219 -0.000356    10.449
   1.84154  0.78418 -0.00404 -1.06060  0.023560  0.002238 -0.000353    10.525
   1.85823  0.80079 -0.00245 -1.05973  0.023762  0.002259 -0.000349    10.519
   1.87481  0.81731 -0.00100 -1.05879  0.023783  0.002281 -0.000346    10.425
   1.89126  0.83371  0.00030 -1.05778  0.023599  0.002306 -0.000343    10.234
   1.90759  0.85000  0.00143 -1.05667  0.023191  0.002333 -0.000340     9.941
   1.92381  0.86619  0.00238 -1.05543  0.022532  0.002363 -0.000337     9.537
   1.93987  0.88223  0.00314 -1.05404  0.021597  0.002396 -0.000335     9.016
   1.95573  0.89808  0.00370 -1.05169  0.020337  0.002451 -0.000243     8.298
   1.97131  0.91366  0.00404 -1.02358  0.018991  0.003140 -0.000226     6.047
   1.98653  0.92887  0.00415 -0.99536  0.017328  0.003847 -0.000155     4.504
   2.00124  0.94358  0.00401 -0.97075  0.015464  0.004468  0.000186     3.461
   2.01526  0.95760  0.00361 -0.95620  0.013506  0.004831  0.000765     2.795
   2.02837  0.97069  0.00296 -0.95117  0.011581  0.004957  0.001488     2.336
   2.04040  0.98268  0.00205 -0.95593  0.009771  0.004867  0.002359     2.007
   2.05125  0.99348  0.00090 -0.97093  0.008112  0.004598  0.003437     1.764
   2.05783  1.00000  0.00000 -0.95742  0.008639  0.004859  0.003154     1.778
   2.05783  1.00010 -0.00002  0.95742  0.076538  0.017578  0.000000     4.354
   2.06446  1.00660 -0.00134  0.95100  0.070714  0.018316  0.000000     3.861
   2.07221  1.01423 -0.00264  0.94366  0.067716  0.019142  0.000000     3.538
   2.08127  1.02319 -0.00403  0.93572  0.064676  0.020033  0.000000     3.228
   2.09186  1.03367 -0.00552  0.92886  0.061401  0.020797  0.000000     2.952
   2.10423  1.04593 -0.00713  0.92254  0.057848  0.021493  0.000000     2.691
   2.11869  1.06029 -0.00888  0.91720  0.053999  0.022071  0.000000     2.447
   2.13560  1.07709 -0.01077  0.91338  0.049885  0.022474  0.000000     2.220
   2.15535  1.09674 -0.01283  0.91166  0.045599  0.022649  0.000000     2.013
   2.17845  1.11972 -0.01505  0.91251  0.041282  0.022566  0.000000     1.829
   2.20544  1.14661 -0.01745  0.91615  0.037113  0.022232  0.000000     1.669
   2.23698  1.17805 -0.02004  0.92237  0.033273  0.021697  0.000000     1.534
   2.27386  1.21481 -0.02282  0.93051  0.029900  0.021044  0.000000     1.421
   2.31695  1.25781 -0.02580  0.93963  0.027060  0.020363  0.000000     1.329
   2.36732  1.30808 -0.02897  0.94881  0.024746  0.019722  0.000000     1.255
   2.42619  1.36685 -0.03233  0.95740  0.022902  0.019157  0.000000     1.195
   2.49501  1.43557 -0.03588  0.96505  0.021454  0.018680  0.000000     1.148
   2.57543  1.51591 -0.03960  0.97165  0.020328  0.018285  0.000000     1.112
   2.66944  1.60984 -0.04346  0.97725  0.019461  0.017963  0.000000     1.083
   2.77931  1.71964 -0.04745  0.98190  0.018799  0.017703  0.000000     1.062
   2.90773  1.84799 -0.05153  0.98571  0.018298  0.017495  0.000000     1.046
   3.05782  1.99803 -0.05566  0.98975  0.017868  0.017279  0.000000     1.034
