#    s        x        y     Ue/Vinf    Dstar     Theta      Cf       H
   0.00000  1.00000  0.00000  0.96133  0.070306  0.012994 -0.000065     5.411
   0.00668  0.99360  0.00192  0.96341  0.067033  0.012790 -0.000066     5.241
   0.01807  0.98272  0.00530  0.96773  0.064245  0.012384 -0.000068     5.188
   0.03106  0.97032  0.00914  0.97307  0.061363  0.011906 -0.000071     5.154
   0.04516  0.95680  0.01317  0.97938  0.058588  0.011368 -0.000075     5.154
   0.06006  0.94246  0.01720  0.98667  0.056022  0.010780 -0.000080     5.197
   0.07565  0.92739  0.02118  0.99499  0.053687  0.010144 -0.000086     5.292
   0.09186  0.91167  0.02516  1.00444  0.051534  0.009463 -0.000093     5.446
   0.10852  0.89549  0.02915  1.01504  0.049501  0.008742 -0.000101     5.662
   0.12544  0.87905  0.03313  1.02682  0.047581  0.007990 -0.000110     5.955
   0.14250  0.86245  0.03708  1.03987  0.045763  0.007209 -0.000121     6.348
   0.15964  0.84577  0.04099  1.05438  0.044032  0.006399 -0.000134     6.881
   0.17681  0.82904  0.04484  1.07060  0.042367  0.005557 -0.000152     7.624
   0.19398  0.81229  0.04864  1.08893  0.040738  0.004678 -0.000178     8.709
   0.21115  0.79553  0.05238  1.11044  0.039092  0.003730 -0.000222    10.481
   0.22833  0.77875  0.05606  1.13682  0.037327  0.002672 -0.000284    13.968
   0.24546  0.76200  0.05967  1.16083  0.035526  0.001816 -0.000455    19.561
   0.26249  0.74535  0.06319  1.16103  0.034084  0.001812 -0.000457    18.806
   0.27941  0.72877  0.06660  1.16118  0.032481  0.001810 -0.000458    17.941
   0.29629  0.71222  0.06990  1.16130  0.030780  0.001810 -0.000460    17.010
   0.31313  0.69568  0.07308  1.16142  0.029013  0.001809 -0.000461    16.037
   0.32994  0.67915  0.07616  1.16154  0.027211  0.001809 -0.000463    15.044
   0.34670  0.66266  0.07911  1.16168  0.025389  0.001808 -0.000466    14.042
   0.36339  0.64620  0.08193  1.16185  0.023571  0.001807 -0.000469    13.046
   0.38005  0.62976  0.08462  1.16209  0.021783  0.001804 -0.000473    12.074
   0.39672  0.61329  0.08718  1.16242  0.020024  0.001800 -0.000478    11.124
   0.41338  0.59681  0.08962  1.16288  0.018303  0.001794 -0.000484    10.201
   0.42997  0.58038  0.09191  1.16349  0.016624  0.001786 -0.000493     9.307
   0.44649  0.56400  0.09406  1.16433  0.015030  0.001775 -0.000505     8.467
   0.46301  0.54760  0.09605  1.16548  0.013517  0.001761 -0.000521     7.677
   0.47954  0.53117  0.09790  1.16702  0.012086  0.001742 -0.000542     6.936
   0.49603  0.51477  0.09961  1.16907  0.010733  0.001720 -0.000572     6.241
   0.51242  0.49845  0.10115  1.17176  0.009498  0.001692 -0.000605     5.613
   0.52875  0.48218  0.10252  1.17528  0.008391  0.001659 -0.000611     5.058
   0.54509  0.46588  0.10371  1.17975  0.007418  0.001620 -0.000544     4.579
   0.56144  0.44957  0.10475  1.18520  0.006543  0.001576 -0.000332     4.152
   0.57774  0.43329  0.10561  1.19152  0.005793  0.001527  0.000055     3.793
   0.59394  0.41711  0.10630  1.19889  0.005157  0.001473  0.000605     3.500
   0.61007  0.40098  0.10679  1.20704  0.004639  0.001416  0.001246     3.278
   0.62617  0.38489  0.10708  1.21554  0.004214  0.001356  0.001939     3.107
   0.64227  0.36879  0.10718  1.22387  0.003869  0.001298  0.002626     2.980
   0.65836  0.35270  0.10708  1.23181  0.003574  0.001242  0.003331     2.878
   0.67432  0.33674  0.10680  1.23936  0.003302  0.001187  0.004128     2.783
   0.69010  0.32097  0.10629  1.24586  0.003069  0.001135  0.004935     2.704
   0.70583  0.30526  0.10554  1.25009  0.002915  0.001091  0.005422     2.672
   0.72167  0.28945  0.10454  1.25389  0.002763  0.001047  0.005966     2.639
   0.73747  0.27369  0.10335  1.25715  0.002611  0.001003  0.006603     2.602
   0.75302  0.25820  0.10195  1.26028  0.002433  0.000957  0.007611     2.541
   0.76841  0.24291  0.10027  1.25986  0.002320  0.000921  0.008160     2.520
   0.78386  0.22758  0.09831  1.25802  0.002224  0.000886  0.008587     2.511
   0.79934  0.21226  0.09610  1.25559  0.002124  0.000850  0.009091     2.499
   0.81467  0.19713  0.09366  1.25256  0.002014  0.000813  0.009787     2.477
   0.82983  0.18221  0.09095  1.24768  0.001914  0.000778  0.010433     2.461
   0.84493  0.16741  0.08797  1.24053  0.001841  0.000746  0.010701     2.468
   0.85995  0.15275  0.08473  1.23356  0.001754  0.000711  0.011174     2.468
   0.87475  0.13836  0.08125  1.22622  0.001648  0.000672  0.012018     2.452
   0.88915  0.12444  0.07757  1.21674  0.001540  0.000634  0.013081     2.428
   0.90314  0.11101  0.07364  1.20362  0.001451  0.000599  0.013851     2.420
   0.91683  0.09797  0.06946  1.18807  0.001386  0.000567  0.013934     2.446
   0.92993  0.08560  0.06517  1.17454  0.001282  0.000526  0.015048     2.436
   0.94206  0.07425  0.06087  1.15810  0.001151  0.000485  0.017595     2.373
   0.95332  0.06387  0.05649  1.13140  0.001087  0.000456  0.018074     2.381
   0.96371  0.05444  0.05215  1.10505  0.001025  0.000427  0.018279     2.404
   0.97301  0.04611  0.04801  1.08117  0.000944  0.000393  0.019393     2.405
   0.98119  0.03891  0.04412  1.05531  0.000850  0.000359  0.021776     2.370
   0.98837  0.03273  0.04046  1.02306  0.000788  0.000332  0.022649     2.375
   0.99470  0.02743  0.03701  0.98909  0.000713  0.000304  0.024969     2.343
   1.00030  0.02288  0.03375  0.94786  0.000659  0.000282  0.026091     2.335
   1.00527  0.01898  0.03066  0.90343  0.000610  0.000262  0.027026     2.330
   1.00973  0.01561  0.02774  0.85423  0.000558  0.000242  0.028662     2.303
   1.01375  0.01272  0.02495  0.79815  0.000522  0.000226  0.028483     2.306
   1.01739  0.01024  0.02228  0.73960  0.000482  0.000210  0.028728     2.301
   1.02073  0.00811  0.01971  0.67227  0.000441  0.000195  0.029523     2.265
   1.02380  0.00630  0.01724  0.59758  0.000419  0.000182  0.026745     2.299
   1.02664  0.00476  0.01485  0.51179  0.000377  0.000172  0.028105     2.192
   1.02926  0.00350  0.01255  0.42321  0.000393  0.000168  0.019401     2.343
   1.03171  0.00246  0.01033  0.33565  0.000322  0.000146  0.021499     2.197
   1.03400  0.00163  0.00819  0.22281  0.000343  0.000152  0.012689     2.255
   1.03618  0.00098  0.00612  0.12023  0.000311  0.000140  0.007736     2.228
   1.03826  0.00048  0.00410  0.00125  0.000287  0.000129  0.000087     2.230
   1.04024  0.00015  0.00214 -0.12564  0.000287  0.000129  0.008746     2.230
   1.04215  0.00001  0.00024 -0.25861  0.000270  0.000122  0.019401     2.216
   1.04400  0.00012 -0.00161 -0.44417  0.000220  0.000101  0.042234     2.181
   1.04587  0.00052 -0.00343 -0.58872  0.000272  0.000115  0.038395     2.357
   1.04780  0.00123 -0.00524 -0.71591  0.000268  0.000122  0.055151     2.196
   1.04986  0.00223 -0.00703 -0.83099  0.000307  0.000132  0.049925     2.319
   1.05205  0.00354 -0.00879 -0.92218  0.000329  0.000144  0.053413     2.283
   1.05438  0.00514 -0.01048 -0.98380  0.000389  0.000164  0.043954     2.379
   1.05689  0.00705 -0.01212 -1.02312  0.000444  0.000186  0.039439     2.394
   1.05960  0.00924 -0.01371 -1.04882  0.000511  0.000210  0.033706     2.435
   1.06254  0.01171 -0.01530 -1.06515  0.000581  0.000236  0.029247     2.463
   1.06576  0.01450 -0.01689 -1.08260  0.000628  0.000258  0.028361     2.433
   1.06931  0.01766 -0.01852 -1.09636  0.000696  0.000283  0.025307     2.457
   1.07328  0.02125 -0.02021 -1.10949  0.000754  0.000308  0.023745     2.453
   1.07773  0.02534 -0.02197 -1.12395  0.000806  0.000331  0.022862     2.437
   1.08275  0.03002 -0.02380 -1.13754  0.000869  0.000356  0.021353     2.442
   1.08845  0.03539 -0.02569 -1.15088  0.000933  0.000382  0.020138     2.442
   1.09493  0.04158 -0.02763 -1.16127  0.001017  0.000412  0.018181     2.466
   1.10237  0.04875 -0.02960 -1.16770  0.001122  0.000449  0.015976     2.501
   1.11095  0.05710 -0.03158 -1.16890  0.001257  0.000493  0.013478     2.553
   1.12083  0.06678 -0.03358 -1.16733  0.001400  0.000541  0.011646     2.587
   1.13204  0.07781 -0.03556 -1.16542  0.001533  0.000591  0.010532     2.594
   1.14448  0.09010 -0.03747 -1.16310  0.001672  0.000643  0.009556     2.601
   1.15809  0.10359 -0.03926 -1.15893  0.001838  0.000699  0.008377     2.630
   1.17266  0.11806 -0.04096 -1.15557  0.001978  0.000753  0.007782     2.628
   1.18781  0.13314 -0.04249 -1.15393  0.002088  0.000801  0.007546     2.606
   1.20335  0.14862 -0.04385 -1.15225  0.002213  0.000850  0.007127     2.604
   1.21923  0.16445 -0.04503 -1.15034  0.002343  0.000898  0.006680     2.609
   1.23540  0.18059 -0.04604 -1.14775  0.002485  0.000947  0.006169     2.625
   1.25175  0.19691 -0.04691 -1.14669  0.002579  0.000989  0.006057     2.608
   1.26813  0.21328 -0.04763 -1.14521  0.002693  0.001032  0.005777     2.611
   1.28457  0.22971 -0.04819 -1.14384  0.002802  0.001073  0.005539     2.612
   1.30115  0.24629 -0.04860 -1.14148  0.002941  0.001117  0.005145     2.632
   1.31783  0.26296 -0.04890 -1.14000  0.003039  0.001157  0.004996     2.628
   1.33448  0.27961 -0.04908 -1.13856  0.003139  0.001195  0.004834     2.627
   1.35110  0.29624 -0.04912 -1.13671  0.003255  0.001234  0.004604     2.636
   1.36778  0.31291 -0.04903 -1.13462  0.003375  0.001274  0.004367     2.649
   1.38450  0.32963 -0.04882 -1.13222  0.003503  0.001315  0.004119     2.665
   1.40120  0.34633 -0.04849 -1.12978  0.003628  0.001354  0.003903     2.679
   1.41786  0.36298 -0.04803 -1.12697  0.003766  0.001395  0.003657     2.700
   1.43449  0.37961 -0.04745 -1.12348  0.003933  0.001439  0.003344     2.734
   1.45114  0.39623 -0.04673 -1.11949  0.004122  0.001484  0.003008     2.777
   1.46777  0.41285 -0.04588 -1.11481  0.004350  0.001533  0.002620     2.837
   1.48439  0.42943 -0.04489 -1.10975  0.004605  0.001584  0.002232     2.907
   1.50097  0.44597 -0.04378 -1.10408  0.004923  0.001639  0.001790     3.005
   1.51751  0.46247 -0.04253 -1.09812  0.005306  0.001695  0.001332     3.131
   1.53401  0.47892 -0.04112 -1.09199  0.005794  0.001753  0.000846     3.306
   1.55050  0.49532 -0.03957 -1.08617  0.006399  0.001809  0.000384     3.538
   1.56702  0.51176 -0.03785 -1.08102  0.007149  0.001859 -0.000013     3.845
   1.58368  0.52831 -0.03597 -1.07666  0.008038  0.001904 -0.000288     4.221
   1.60055  0.54506 -0.03395 -1.07287  0.009045  0.001945 -0.000428     4.650
   1.61761  0.56199 -0.03181 -1.06974  0.010144  0.001981 -0.000468     5.120
   1.63483  0.57906 -0.02959 -1.06719  0.011303  0.002013 -0.000463     5.616
   1.65218  0.59626 -0.02732 -1.06512  0.012503  0.002040 -0.000442     6.128
   1.66962  0.61355 -0.02500 -1.06342  0.013715  0.002064 -0.000423     6.644
   1.68712  0.63090 -0.02268 -1.06199  0.014913  0.002086 -0.000408     7.149
   1.70462  0.64824 -0.02037 -1.06076  0.016079  0.002106 -0.000397     7.636
   1.72205  0.66552 -0.01809 -1.05967  0.017192  0.002124 -0.000388     8.094
   1.73939  0.68272 -0.01585 -1.05870  0.018250  0.002141 -0.000380     8.523
   1.75663  0.69982 -0.01367 -1.05779  0.019224  0.002158 -0.000374     8.908
   1.77378  0.71684 -0.01156 -1.05693  0.020102  0.002175 -0.000368     9.243
   1.79085  0.73379 -0.00953 -1.05608  0.020875  0.002192 -0.000364     9.523
   1.80784  0.75067 -0.00760 -1.05524  0.021530  0.002210 -0.000359     9.744
   1.82474  0.76746 -0.00576 -1.05439  0.022058  0.002228 -0.000355     9.900
   1.84154  0.78418 -0.00404 -1.05351  0.022445  0.002248 -0.000351     9.986
   1.85823  0.80079 -0.00245 -1.05259  0.022678  0.002269 -0.000348     9.996
   1.87481  0.81731 -0.00100 -1.05162  0.022741  0.002291 -0.000344     9.925
   1.89126  0.83371  0.00030 -1.05058  0.022616  0.002316 -0.000341     9.766
   1.90759  0.85000  0.00143 -1.04945  0.022289  0.002342 -0.000338     9.515
   1.92381  0.86619  0.00238 -1.04821  0.021740  0.002371 -0.000336     9.167
   1.93987  0.88223  0.00314 -1.04684  0.020958  0.002403 -0.000334     8.721
   1.95573  0.89808  0.00370 -1.04532  0.019911  0.002438 -0.000333     8.168
   1.97131  0.91366  0.00404 -1.04359  0.018559  0.002475 -0.000334     7.498
   1.98653  0.92887  0.00415 -1.02185  0.017054  0.002965 -0.000221     5.753
   2.00124  0.94358  0.00401 -0.99517  0.015302  0.003568 -0.000124     4.289
   2.01526  0.95760  0.00361 -0.97381  0.013377  0.004047  0.000327     3.306
   2.02837  0.97069  0.00296 -0.96293  0.011408  0.004285  0.001078     2.663
   2.04040  0.98268  0.00205 -0.96295  0.009521  0.004294  0.002046     2.217
   2.05125  0.99348  0.00090 -0.97462  0.007796  0.004104  0.003268     1.900
   2.05783  1.00000  0.00000 -0.96133  0.008308  0.004341  0.002994     1.914
   2.05783  1.00010 -0.00002  0.96133  0.078615  0.017335  0.000000     4.535
   2.06446  1.00660 -0.00133  0.95531  0.072659  0.018033  0.000000     4.029
   2.07221  1.01424 -0.00264  0.94840  0.069589  0.018817  0.000000     3.698
   2.08127  1.02319 -0.00402  0.93990  0.066530  0.019778  0.000000     3.364
   2.09186  1.03367 -0.00550  0.93228  0.063231  0.020635  0.000000     3.064
   2.10423  1.04594 -0.00710  0.92537  0.059625  0.021405  0.000000     2.786
   2.11869  1.06030 -0.00882  0.91938  0.055701  0.022062  0.000000     2.525
   2.13560  1.07710 -0.01069  0.91487  0.051489  0.022545  0.000000     2.284
   2.15535  1.09675 -0.01271  0.91245  0.047075  0.022795  0.000000     2.065
   2.17845  1.11974 -0.01489  0.91264  0.042605  0.022776  0.000000     1.871
   2.20544  1.14663 -0.01724  0.91572  0.038264  0.022487  0.000000     1.702
   2.23698  1.17808 -0.01976  0.92155  0.034245  0.021976  0.000000     1.558
   2.27386  1.21485 -0.02245  0.92949  0.030702  0.021326  0.000000     1.440
   2.31695  1.25785 -0.02531  0.93857  0.027714  0.020634  0.000000     1.343
   2.36732  1.30813 -0.02834  0.94784  0.025280  0.019976  0.000000     1.266
   2.42619  1.36692 -0.03152  0.95656  0.023342  0.019393  0.000000     1.204
   2.49501  1.43565 -0.03483  0.96435  0.021822  0.018899  0.000000     1.155
   2.57543  1.51600 -0.03826  0.97108  0.020642  0.018492  0.000000     1.116
   2.66944  1.60994 -0.04176  0.97678  0.019735  0.018159  0.000000     1.087
   2.77931  1.71975 -0.04530  0.98152  0.019043  0.017891  0.000000     1.064
   2.90773  1.84812 -0.04883  0.98540  0.018521  0.017677  0.000000     1.048
   3.05782  1.99818 -0.05228  0.98954  0.018071  0.017453  0.000000     1.035
