#    s        x        y     Ue/Vinf    Dstar     Theta      Cf       H
   0.00000  1.00000  0.00000  0.95269  0.065525  0.014522 -0.000052     4.512
   0.00668  0.99360  0.00192  0.95457  0.062340  0.014339 -0.000048     4.348
   0.01807  0.98272  0.00530  0.95878  0.059583  0.013947 -0.000046     4.272
   0.03106  0.97032  0.00914  0.96402  0.056732  0.013481 -0.000045     4.208
   0.04516  0.95680  0.01317  0.97029  0.054002  0.012951 -0.000046     4.170
   0.06006  0.94246  0.01720  0.97764  0.051497  0.012363 -0.000048     4.165
   0.07565  0.92739  0.02118  0.98614  0.049247  0.011719 -0.000054     4.203
   0.09186  0.91167  0.02516  0.99588  0.047207  0.011021 -0.000063     4.283
   0.10852  0.89549  0.02915  1.00688  0.045319  0.010280 -0.000074     4.409
   0.12544  0.87905  0.03313  1.01913  0.043574  0.009503 -0.000088     4.585
   0.14250  0.86245  0.03708  1.03270  0.041963  0.008697 -0.000103     4.825
   0.15964  0.84577  0.04099  1.04772  0.040475  0.007864 -0.000118     5.147
   0.17681  0.82904  0.04484  1.06439  0.039089  0.007002 -0.000134     5.583
   0.19398  0.81229  0.04864  1.08300  0.037783  0.006108 -0.000150     6.186
   0.21115  0.79553  0.05238  1.10406  0.036527  0.005175 -0.000172     7.059
   0.22833  0.77875  0.05606  1.12849  0.035265  0.004181 -0.000207     8.434
   0.24546  0.76200  0.05967  1.15818  0.033898  0.003086 -0.000274    10.986
   0.26249  0.74535  0.06319  1.19883  0.032227  0.001727 -0.000313    18.657
   0.27941  0.72877  0.06660  1.19594  0.031202  0.001819 -0.000471    17.156
   0.29629  0.71222  0.06990  1.19622  0.029895  0.001814 -0.000474    16.485
   0.31313  0.69568  0.07308  1.19646  0.028456  0.001810 -0.000476    15.724
   0.32994  0.67915  0.07616  1.19669  0.026929  0.001807 -0.000478    14.907
   0.34670  0.66266  0.07911  1.19692  0.025339  0.001804 -0.000481    14.049
   0.36339  0.64620  0.08193  1.19717  0.023720  0.001801 -0.000484    13.173
   0.38005  0.62976  0.08462  1.19746  0.022095  0.001797 -0.000488    12.296
   0.39672  0.61329  0.08718  1.19783  0.020479  0.001792 -0.000492    11.427
   0.41338  0.59681  0.08962  1.19829  0.018868  0.001786 -0.000498    10.564
   0.42997  0.58038  0.09191  1.19887  0.017280  0.001778 -0.000506     9.716
   0.44649  0.56400  0.09406  1.19964  0.015749  0.001768 -0.000516     8.906
   0.46301  0.54760  0.09605  1.20067  0.014280  0.001756 -0.000529     8.134
   0.47954  0.53117  0.09790  1.20201  0.012873  0.001740 -0.000546     7.400
   0.49603  0.51477  0.09961  1.20375  0.011524  0.001720 -0.000569     6.699
   0.51242  0.49845  0.10115  1.20603  0.010271  0.001696 -0.000600     6.055
   0.52875  0.48218  0.10252  1.20900  0.009131  0.001668 -0.000632     5.475
   0.54509  0.46588  0.10371  1.21281  0.008110  0.001634 -0.000636     4.964
   0.56144  0.44957  0.10475  1.21758  0.007176  0.001594 -0.000560     4.501
   0.57774  0.43329  0.10561  1.22327  0.006350  0.001551 -0.000334     4.095
   0.59394  0.41711  0.10630  1.22985  0.005645  0.001503  0.000064     3.757
   0.61007  0.40098  0.10679  1.23743  0.005052  0.001450  0.000615     3.484
   0.62617  0.38489  0.10708  1.24579  0.004558  0.001393  0.001267     3.272
   0.64227  0.36879  0.10718  1.25445  0.004155  0.001336  0.001959     3.111
   0.65836  0.35270  0.10708  1.26302  0.003817  0.001279  0.002674     2.985
   0.67432  0.33674  0.10680  1.27157  0.003500  0.001222  0.003529     2.865
   0.69010  0.32097  0.10629  1.27896  0.003250  0.001169  0.004307     2.780
   0.70583  0.30526  0.10554  1.28486  0.003060  0.001122  0.004923     2.728
   0.72167  0.28945  0.10454  1.28976  0.002901  0.001077  0.005450     2.693
   0.73747  0.27369  0.10335  1.29468  0.002724  0.001031  0.006196     2.643
   0.75302  0.25820  0.10195  1.29900  0.002540  0.000984  0.007170     2.581
   0.76841  0.24291  0.10027  1.30043  0.002411  0.000945  0.007827     2.550
   0.78386  0.22758  0.09831  1.29972  0.002322  0.000911  0.008137     2.549
   0.79934  0.21226  0.09610  1.29940  0.002211  0.000873  0.008717     2.531
   0.81467  0.19713  0.09366  1.29837  0.002093  0.000835  0.009459     2.506
   0.82983  0.18221  0.09095  1.29539  0.001993  0.000799  0.010053     2.493
   0.84493  0.16741  0.08797  1.29070  0.001915  0.000766  0.010352     2.499
   0.85995  0.15275  0.08473  1.28647  0.001815  0.000729  0.010988     2.491
   0.87475  0.13836  0.08125  1.28115  0.001715  0.000691  0.011687     2.482
   0.88915  0.12444  0.07757  1.27491  0.001601  0.000652  0.012791     2.457
   0.90314  0.11101  0.07364  1.26539  0.001506  0.000616  0.013656     2.446
   0.91683  0.09797  0.06946  1.25331  0.001443  0.000582  0.013656     2.478
   0.92993  0.08560  0.06517  1.24419  0.001327  0.000540  0.015049     2.457
   0.94206  0.07425  0.06087  1.23176  0.001194  0.000499  0.017650     2.395
   0.95332  0.06387  0.05649  1.20978  0.001133  0.000470  0.017961     2.412
   0.96371  0.05444  0.05215  1.18935  0.001062  0.000438  0.018597     2.425
   0.97301  0.04611  0.04801  1.17035  0.000989  0.000405  0.019216     2.445
   0.98119  0.03891  0.04412  1.15237  0.000882  0.000368  0.022337     2.396
   0.98837  0.03273  0.04046  1.12602  0.000812  0.000340  0.023845     2.388
   0.99470  0.02743  0.03701  1.09731  0.000746  0.000314  0.025553     2.378
   1.00030  0.02288  0.03375  1.06501  0.000682  0.000289  0.027607     2.359
   1.00527  0.01898  0.03066  1.02764  0.000629  0.000268  0.029206     2.348
   1.00973  0.01561  0.02774  0.98581  0.000579  0.000248  0.030896     2.332
   1.01375  0.01272  0.02495  0.93854  0.000535  0.000230  0.032049     2.323
   1.01739  0.01024  0.02228  0.88628  0.000494  0.000214  0.033023     2.314
   1.02073  0.00811  0.01971  0.82697  0.000455  0.000198  0.034130     2.293
   1.02380  0.00630  0.01724  0.75679  0.000422  0.000186  0.034614     2.263
   1.02664  0.00476  0.01485  0.67990  0.000405  0.000178  0.031730     2.281
   1.02926  0.00350  0.01255  0.60215  0.000376  0.000166  0.030622     2.266
   1.03171  0.00246  0.01033  0.51464  0.000353  0.000157  0.028201     2.251
   1.03400  0.00163  0.00819  0.41952  0.000337  0.000150  0.024114     2.247
   1.03618  0.00098  0.00612  0.31794  0.000323  0.000145  0.019211     2.231
   1.03826  0.00048  0.00410  0.21294  0.000308  0.000137  0.012972     2.258
   1.04024  0.00015  0.00214  0.09401  0.000272  0.000122  0.006309     2.230
   1.04215  0.00001  0.00024 -0.04210  0.000272  0.000122  0.003775     2.230
   1.04400  0.00012 -0.00161 -0.18575  0.000255  0.000115  0.015395     2.223
   1.04587  0.00052 -0.00343 -0.34514  0.000246  0.000111  0.028897     2.225
   1.04780  0.00123 -0.00524 -0.48068  0.000280  0.000122  0.033160     2.287
   1.04986  0.00223 -0.00703 -0.60856  0.000284  0.000128  0.043628     2.222
   1.05205  0.00354 -0.00879 -0.71679  0.000324  0.000140  0.041586     2.309
   1.05438  0.00514 -0.01048 -0.78866  0.000374  0.000160  0.038473     2.335
   1.05689  0.00705 -0.01212 -0.84412  0.000422  0.000180  0.036235     2.343
   1.05960  0.00924 -0.01371 -0.88107  0.000491  0.000205  0.030695     2.398
   1.06254  0.01171 -0.01530 -0.91486  0.000531  0.000225  0.030473     2.363
   1.06576  0.01450 -0.01689 -0.94125  0.000597  0.000249  0.026778     2.403
   1.06931  0.01766 -0.01852 -0.96381  0.000654  0.000272  0.025004     2.404
   1.07328  0.02125 -0.02021 -0.98596  0.000706  0.000295  0.023851     2.397
   1.07773  0.02534 -0.02197 -1.00822  0.000758  0.000317  0.022860     2.391
   1.08275  0.03002 -0.02380 -1.03123  0.000807  0.000339  0.022131     2.383
   1.08845  0.03539 -0.02569 -1.05027  0.000882  0.000366  0.020039     2.412
   1.09493  0.04158 -0.02763 -1.06726  0.000956  0.000395  0.018588     2.422
   1.10237  0.04875 -0.02960 -1.08062  0.001050  0.000429  0.016669     2.449
   1.11095  0.05710 -0.03158 -1.08782  0.001179  0.000472  0.014165     2.499
   1.12083  0.06678 -0.03358 -1.09250  0.001304  0.000518  0.012576     2.520
   1.13204  0.07781 -0.03556 -1.09589  0.001432  0.000566  0.011353     2.530
   1.14448  0.09010 -0.03747 -1.09859  0.001561  0.000616  0.010380     2.536
   1.15809  0.10359 -0.03926 -1.09887  0.001717  0.000670  0.009163     2.562
   1.17266  0.11806 -0.04096 -1.09929  0.001851  0.000722  0.008501     2.563
   1.18781  0.13314 -0.04249 -1.10180  0.001945  0.000767  0.008362     2.535
   1.20335  0.14862 -0.04385 -1.10299  0.002074  0.000815  0.007764     2.545
   1.21923  0.16445 -0.04503 -1.10392  0.002195  0.000861  0.007313     2.549
   1.23540  0.18059 -0.04604 -1.10389  0.002327  0.000908  0.006790     2.563
   1.25175  0.19691 -0.04691 -1.10474  0.002425  0.000950  0.006586     2.554
   1.26813  0.21328 -0.04763 -1.10510  0.002535  0.000991  0.006279     2.557
   1.28457  0.22971 -0.04819 -1.10559  0.002635  0.001031  0.006054     2.556
   1.30115  0.24629 -0.04860 -1.10519  0.002756  0.001073  0.005699     2.570
   1.31783  0.26296 -0.04890 -1.10498  0.002860  0.001112  0.005473     2.573
   1.33448  0.27961 -0.04908 -1.10510  0.002949  0.001148  0.005331     2.569
   1.35110  0.29624 -0.04912 -1.10475  0.003052  0.001185  0.005116     2.575
   1.36778  0.31291 -0.04903 -1.10360  0.003176  0.001225  0.004812     2.593
   1.38450  0.32963 -0.04882 -1.10278  0.003278  0.001262  0.004634     2.598
   1.40120  0.34633 -0.04849 -1.10146  0.003394  0.001300  0.004403     2.611
   1.41786  0.36298 -0.04803 -1.09967  0.003522  0.001339  0.004146     2.630
   1.43449  0.37961 -0.04745 -1.09750  0.003658  0.001379  0.003882     2.652
   1.45114  0.39623 -0.04673 -1.09459  0.003820  0.001422  0.003561     2.686
   1.46777  0.41285 -0.04588 -1.09094  0.004012  0.001469  0.003193     2.732
   1.48439  0.42943 -0.04489 -1.08694  0.004214  0.001516  0.002847     2.780
   1.50097  0.44597 -0.04378 -1.08195  0.004481  0.001568  0.002404     2.857
   1.51751  0.46247 -0.04253 -1.07651  0.004788  0.001623  0.001959     2.949
   1.53401  0.47892 -0.04112 -1.07046  0.005183  0.001682  0.001457     3.081
   1.55050  0.49532 -0.03957 -1.06421  0.005683  0.001743  0.000935     3.261
   1.56702  0.51176 -0.03785 -1.05821  0.006308  0.001801  0.000439     3.502
   1.58368  0.52831 -0.03597 -1.05292  0.007076  0.001855  0.000021     3.815
   1.60055  0.54506 -0.03395 -1.04845  0.007961  0.001902 -0.000260     4.187
   1.61761  0.56199 -0.03181 -1.04456  0.008938  0.001945 -0.000404     4.596
   1.63483  0.57906 -0.02959 -1.04129  0.009986  0.001983 -0.000452     5.035
   1.65218  0.59626 -0.02732 -1.03860  0.011080  0.002017 -0.000451     5.493
   1.66962  0.61355 -0.02500 -1.03637  0.012202  0.002047 -0.000435     5.960
   1.68712  0.63090 -0.02268 -1.03451  0.013320  0.002074 -0.000416     6.422
   1.70462  0.64824 -0.02037 -1.03292  0.014420  0.002099 -0.000401     6.871
   1.72205  0.66552 -0.01809 -1.03154  0.015486  0.002121 -0.000389     7.301
   1.73939  0.68272 -0.01585 -1.03032  0.016511  0.002142 -0.000379     7.709
   1.75663  0.69982 -0.01367 -1.02921  0.017467  0.002162 -0.000371     8.080
   1.77378  0.71684 -0.01156 -1.02818  0.018342  0.002181 -0.000364     8.409
   1.79085  0.73379 -0.00953 -1.02719  0.019129  0.002200 -0.000358     8.694
   1.80784  0.75067 -0.00760 -1.02623  0.019817  0.002220 -0.000353     8.927
   1.82474  0.76746 -0.00576 -1.02528  0.020394  0.002240 -0.000349     9.105
   1.84154  0.78418 -0.00404 -1.02433  0.020849  0.002260 -0.000344     9.224
   1.85823  0.80079 -0.00245 -1.02336  0.021170  0.002282 -0.000340     9.277
   1.87481  0.81731 -0.00100 -1.02235  0.021343  0.002305 -0.000337     9.260
   1.89126  0.83371  0.00030 -1.02128  0.021353  0.002329 -0.000334     9.168
   1.90759  0.85000  0.00143 -1.02016  0.021188  0.002355 -0.000331     8.996
   1.92381  0.86619  0.00238 -1.01894  0.020836  0.002383 -0.000328     8.743
   1.93987  0.88223  0.00314 -1.01764  0.020293  0.002413 -0.000326     8.409
   1.95573  0.89808  0.00370 -1.01622  0.019542  0.002445 -0.000325     7.991
   1.97131  0.91366  0.00404 -1.01466  0.018576  0.002480 -0.000325     7.492
   1.98653  0.92887  0.00415 -1.01297  0.017374  0.002516 -0.000328     6.906
   2.00124  0.94358  0.00401 -1.01112  0.015930  0.002553 -0.000334     6.240
   2.01526  0.95760  0.00361 -1.00152  0.014313  0.002746 -0.000202     5.213
   2.02837  0.97069  0.00296 -0.98122  0.012591  0.003143 -0.000065     4.006
   2.04040  0.98268  0.00205 -0.96759  0.010788  0.003399  0.000519     3.174
   2.05125  0.99348  0.00090 -0.96272  0.009070  0.003490  0.001482     2.599
   2.05783  1.00000  0.00000 -0.95269  0.009494  0.003667  0.001411     2.589
   2.05783  1.00010 -0.00002  0.95269  0.075016  0.018187  0.000000     4.125
   2.06446  1.00660 -0.00133  0.94608  0.069288  0.018948  0.000000     3.657
   2.07221  1.01424 -0.00263  0.93886  0.066330  0.019764  0.000000     3.356
   2.08127  1.02319 -0.00400  0.93260  0.063272  0.020466  0.000000     3.092
   2.09186  1.03368 -0.00545  0.92680  0.060055  0.021110  0.000000     2.845
   2.10423  1.04595 -0.00702  0.92153  0.056601  0.021686  0.000000     2.610
   2.11869  1.06031 -0.00871  0.91719  0.052889  0.022150  0.000000     2.388
   2.13560  1.07712 -0.01053  0.91425  0.048951  0.022455  0.000000     2.180
   2.15535  1.09678 -0.01248  0.91322  0.044869  0.022557  0.000000     1.989
   2.17845  1.11978 -0.01456  0.91451  0.040770  0.022433  0.000000     1.817
   2.20544  1.14668 -0.01679  0.91826  0.036811  0.022090  0.000000     1.666
   2.23698  1.17813 -0.01916  0.92430  0.033152  0.021574  0.000000     1.537
   2.27386  1.21492 -0.02166  0.93204  0.029916  0.020956  0.000000     1.428
   2.31695  1.25794 -0.02427  0.94068  0.027168  0.020312  0.000000     1.338
   2.36732  1.30823 -0.02698  0.94941  0.024907  0.019701  0.000000     1.264
   2.42619  1.36704 -0.02977  0.95763  0.023085  0.019159  0.000000     1.205
   2.49501  1.43579 -0.03259  0.96500  0.021639  0.018696  0.000000     1.157
   2.57543  1.51617 -0.03540  0.97141  0.020502  0.018310  0.000000     1.120
   2.66944  1.61014 -0.03814  0.97688  0.019617  0.017992  0.000000     1.090
   2.77931  1.71998 -0.04073  0.98146  0.018934  0.017733  0.000000     1.068
   2.90773  1.84837 -0.04309  0.98524  0.018413  0.017524  0.000000     1.051
   3.05782  1.99846 -0.04510  0.98934  0.017960  0.017303  0.000000     1.038
