#    s        x        y     Ue/Vinf    Dstar     Theta      Cf       H
   0.00000  1.00000  0.00000  1.07629  0.110511  0.002973 -0.000255    37.171
   0.00668  0.99360  0.00192  1.07606  0.107027  0.003000 -0.000669    35.679
   0.01807  0.98272  0.00530  1.07598  0.103985  0.003011 -0.000667    34.531
   0.03106  0.97032  0.00914  1.07590  0.100702  0.003023 -0.000665    33.314
   0.04516  0.95680  0.01317  1.07584  0.097363  0.003033 -0.000663    32.103
   0.06006  0.94246  0.01720  1.07580  0.094059  0.003041 -0.000662    30.931
   0.07565  0.92739  0.02118  1.07578  0.090811  0.003047 -0.000661    29.801
   0.09186  0.91167  0.02516  1.07577  0.087571  0.003052 -0.000660    28.690
   0.10852  0.89549  0.02915  1.07577  0.084286  0.003057 -0.000660    27.570
   0.12544  0.87905  0.03313  1.07577  0.080970  0.003062 -0.000660    26.443
   0.14250  0.86245  0.03708  1.07577  0.077630  0.003067 -0.000659    25.312
   0.15964  0.84577  0.04099  1.07577  0.074275  0.003072 -0.000659    24.179
   0.17681  0.82904  0.04484  1.07577  0.070912  0.003077 -0.000659    23.046
   0.19398  0.81229  0.04864  1.07577  0.067546  0.003082 -0.000659    21.916
   0.21115  0.79553  0.05238  1.07577  0.064186  0.003087 -0.000660    20.793
   0.22833  0.77875  0.05606  1.07577  0.060826  0.003092 -0.000660    19.674
   0.24546  0.76200  0.05967  1.07578  0.057471  0.003096 -0.000661    18.562
   0.26249  0.74535  0.06319  1.07579  0.054150  0.003100 -0.000662    17.468
   0.27941  0.72877  0.06660  1.07583  0.050890  0.003103 -0.000664    16.401
   0.29629  0.71222  0.06990  1.07589  0.047692  0.003104 -0.000666    15.363
   0.31313  0.69568  0.07308  1.07599  0.044559  0.003104 -0.000669    14.353
   0.32994  0.67915  0.07616  1.07614  0.041502  0.003102 -0.000673    13.377
   0.34670  0.66266  0.07911  1.07635  0.038521  0.003098 -0.000678    12.433
   0.36339  0.64620  0.08193  1.07664  0.035634  0.003091 -0.000685    11.527
   0.38005  0.62976  0.08462  1.07704  0.032854  0.003081 -0.000693    10.662
   0.39672  0.61329  0.08718  1.07758  0.030177  0.003068 -0.000704     9.837
   0.41338  0.59681  0.08962  1.07828  0.027601  0.003050 -0.000717     9.049
   0.42997  0.58038  0.09191  1.07919  0.025130  0.003028 -0.000735     8.299
   0.44649  0.56400  0.09406  1.08037  0.022808  0.003000 -0.000758     7.601
   0.46301  0.54760  0.09605  1.08188  0.020621  0.002967 -0.000787     6.950
   0.47954  0.53117  0.09790  1.08382  0.018566  0.002927 -0.000825     6.342
   0.49603  0.51477  0.09961  1.08627  0.016639  0.002880 -0.000871     5.777
   0.51242  0.49845  0.10115  1.08935  0.014877  0.002826 -0.000898     5.265
   0.52875  0.48218  0.10252  1.09318  0.013289  0.002763 -0.000869     4.810
   0.54509  0.46588  0.10371  1.09784  0.011864  0.002692 -0.000713     4.408
   0.56144  0.44957  0.10475  1.10329  0.010586  0.002614 -0.000366     4.050
   0.57774  0.43329  0.10561  1.10953  0.009448  0.002529  0.000211     3.736
   0.59394  0.41711  0.10630  1.11665  0.008481  0.002436  0.000972     3.482
   0.61007  0.40098  0.10679  1.12445  0.007656  0.002338  0.001886     3.275
   0.62617  0.38489  0.10708  1.13261  0.006957  0.002237  0.002899     3.110
   0.64227  0.36879  0.10718  1.14076  0.006362  0.002136  0.003980     2.978
   0.65836  0.35270  0.10708  1.14849  0.005863  0.002039  0.005065     2.875
   0.67432  0.33674  0.10680  1.15576  0.005408  0.001945  0.006278     2.781
   0.69010  0.32097  0.10629  1.16197  0.005021  0.001856  0.007488     2.705
   0.70583  0.30526  0.10554  1.16656  0.004721  0.001776  0.008473     2.658
   0.72167  0.28945  0.10454  1.16993  0.004467  0.001701  0.009329     2.625
   0.73747  0.27369  0.10335  1.17300  0.004190  0.001624  0.010505     2.580
   0.75302  0.25820  0.10195  1.17495  0.003914  0.001549  0.011945     2.527
   0.76841  0.24291  0.10027  1.17388  0.003723  0.001486  0.012846     2.505
   0.78386  0.22758  0.09831  1.17131  0.003555  0.001426  0.013597     2.493
   0.79934  0.21226  0.09610  1.16786  0.003383  0.001365  0.014471     2.478
   0.81467  0.19713  0.09366  1.16343  0.003197  0.001303  0.015645     2.454
   0.82983  0.18221  0.09095  1.15660  0.003042  0.001246  0.016546     2.442
   0.84493  0.16741  0.08797  1.14793  0.002908  0.001191  0.017169     2.443
   0.85995  0.15275  0.08473  1.13865  0.002752  0.001131  0.018159     2.434
   0.87475  0.13836  0.08125  1.12757  0.002600  0.001071  0.019166     2.427
   0.88915  0.12444  0.07757  1.11491  0.002423  0.001008  0.020824     2.403
   0.90314  0.11101  0.07364  1.09810  0.002284  0.000952  0.021856     2.399
   0.91683  0.09797  0.06946  1.07903  0.002151  0.000894  0.022683     2.404
   0.92993  0.08560  0.06517  1.05878  0.001993  0.000832  0.024228     2.396
   0.94206  0.07425  0.06087  1.03496  0.001813  0.000770  0.027089     2.355
   0.95332  0.06387  0.05649  1.00313  0.001694  0.000721  0.028237     2.350
   0.96371  0.05444  0.05215  0.96942  0.001596  0.000674  0.028428     2.369
   0.97301  0.04611  0.04801  0.93732  0.001467  0.000619  0.029954     2.368
   0.98119  0.03891  0.04412  0.90230  0.001327  0.000566  0.032641     2.343
   0.98837  0.03273  0.04046  0.86064  0.001214  0.000522  0.034672     2.324
   0.99470  0.02743  0.03701  0.81495  0.001129  0.000484  0.035014     2.332
   1.00030  0.02288  0.03375  0.76657  0.001023  0.000444  0.037462     2.301
   1.00527  0.01898  0.03066  0.71105  0.000954  0.000413  0.036995     2.308
   1.00973  0.01561  0.02774  0.65170  0.000869  0.000381  0.038237     2.280
   1.01375  0.01272  0.02495  0.58286  0.000812  0.000358  0.037113     2.264
   1.01739  0.01024  0.02228  0.51131  0.000768  0.000337  0.033813     2.283
   1.02073  0.00811  0.01971  0.43621  0.000698  0.000309  0.032344     2.262
   1.02380  0.00630  0.01724  0.34921  0.000648  0.000288  0.028193     2.252
   1.02664  0.00476  0.01485  0.25274  0.000614  0.000275  0.022006     2.227
   1.02926  0.00350  0.01255  0.15422  0.000595  0.000265  0.013588     2.248
   1.03171  0.00246  0.01033  0.04994  0.000533  0.000239  0.004990     2.230
   1.03400  0.00163  0.00819 -0.06342  0.000533  0.000239  0.006345     2.230
   1.03618  0.00098  0.00612 -0.17610  0.000515  0.000231  0.018350     2.224
   1.03826  0.00048  0.00410 -0.29943  0.000479  0.000217  0.033845     2.212
   1.04024  0.00015  0.00214 -0.45234  0.000420  0.000192  0.059478     2.191
   1.04215  0.00001  0.00024 -0.61887  0.000405  0.000182  0.081763     2.227
   1.04400  0.00012 -0.00161 -0.78322  0.000399  0.000179  0.105449     2.223
   1.04587  0.00052 -0.00343 -0.93657  0.000413  0.000184  0.118365     2.253
   1.04780  0.00123 -0.00524 -1.05852  0.000456  0.000198  0.116384     2.298
   1.04986  0.00223 -0.00703 -1.15063  0.000509  0.000219  0.110486     2.324
   1.05205  0.00354 -0.00879 -1.22129  0.000569  0.000243  0.102706     2.346
   1.05438  0.00514 -0.01048 -1.26654  0.000657  0.000273  0.087125     2.405
   1.05689  0.00705 -0.01212 -1.28862  0.000770  0.000311  0.070613     2.473
   1.05960  0.00924 -0.01371 -1.29193  0.000917  0.000358  0.053869     2.563
   1.06254  0.01171 -0.01530 -1.29520  0.001014  0.000399  0.050062     2.541
   1.06576  0.01450 -0.01689 -1.29685  0.001129  0.000442  0.044344     2.555
   1.06931  0.01766 -0.01852 -1.29710  0.001247  0.000486  0.039631     2.567
   1.07328  0.02125 -0.02021 -1.29713  0.001362  0.000530  0.036184     2.569
   1.07773  0.02534 -0.02197 -1.29811  0.001471  0.000575  0.033910     2.559
   1.08275  0.03002 -0.02380 -1.29978  0.001582  0.000620  0.031864     2.551
   1.08845  0.03539 -0.02569 -1.30187  0.001699  0.000667  0.029907     2.545
   1.09493  0.04158 -0.02763 -1.30204  0.001850  0.000721  0.026889     2.564
   1.10237  0.04875 -0.02960 -1.30020  0.002025  0.000782  0.023845     2.589
   1.11095  0.05710 -0.03158 -1.29372  0.002270  0.000856  0.019694     2.651
   1.12083  0.06678 -0.03358 -1.28502  0.002530  0.000938  0.016617     2.697
   1.13204  0.07781 -0.03556 -1.27645  0.002771  0.001023  0.014843     2.709
   1.14448  0.09010 -0.03747 -1.26656  0.003058  0.001115  0.012789     2.743
   1.15809  0.10359 -0.03926 -1.25662  0.003345  0.001210  0.011282     2.765
   1.17266  0.11806 -0.04096 -1.24787  0.003597  0.001302  0.010443     2.763
   1.18781  0.13314 -0.04249 -1.24119  0.003796  0.001387  0.010166     2.737
   1.20335  0.14862 -0.04385 -1.23484  0.004025  0.001471  0.009559     2.736
   1.21923  0.16445 -0.04503 -1.22916  0.004244  0.001553  0.009057     2.733
   1.23540  0.18059 -0.04604 -1.22355  0.004479  0.001635  0.008462     2.740
   1.25175  0.19691 -0.04691 -1.21909  0.004664  0.001709  0.008220     2.728
   1.26813  0.21328 -0.04763 -1.21501  0.004851  0.001782  0.007934     2.723
   1.28457  0.22971 -0.04819 -1.21106  0.005047  0.001853  0.007588     2.724
   1.30115  0.24629 -0.04860 -1.20714  0.005251  0.001924  0.007217     2.730
   1.31783  0.26296 -0.04890 -1.20335  0.005453  0.001993  0.006877     2.735
   1.33448  0.27961 -0.04908 -1.20010  0.005624  0.002058  0.006680     2.732
   1.35110  0.29624 -0.04912 -1.19675  0.005814  0.002124  0.006399     2.737
   1.36778  0.31291 -0.04903 -1.19311  0.006031  0.002191  0.006034     2.752
   1.38450  0.32963 -0.04882 -1.18962  0.006236  0.002257  0.005739     2.763
   1.40120  0.34633 -0.04849 -1.18598  0.006458  0.002323  0.005409     2.779
   1.41786  0.36298 -0.04803 -1.18205  0.006709  0.002392  0.005019     2.805
   1.43449  0.37961 -0.04745 -1.17791  0.006979  0.002462  0.004615     2.835
   1.45114  0.39623 -0.04673 -1.17348  0.007283  0.002534  0.004170     2.874
   1.46777  0.41285 -0.04588 -1.16866  0.007640  0.002609  0.003666     2.928
   1.48439  0.42943 -0.04489 -1.16367  0.008027  0.002686  0.003168     2.988
   1.50097  0.44597 -0.04378 -1.15837  0.008491  0.002767  0.002612     3.069
   1.51751  0.46247 -0.04253 -1.15298  0.009015  0.002848  0.002059     3.165
   1.53401  0.47892 -0.04112 -1.14751  0.009644  0.002931  0.001477     3.290
   1.55050  0.49532 -0.03957 -1.14220  0.010371  0.003012  0.000919     3.443
   1.56702  0.51176 -0.03785 -1.13720  0.011227  0.003091  0.000398     3.633
   1.58368  0.52831 -0.03597 -1.13264  0.012209  0.003164 -0.000044     3.859
   1.60055  0.54506 -0.03395 -1.12853  0.013288  0.003232 -0.000370     4.112
   1.61761  0.56199 -0.03181 -1.12479  0.014441  0.003296 -0.000580     4.381
   1.63483  0.57906 -0.02959 -1.12139  0.015635  0.003358 -0.000693     4.657
   1.65218  0.59626 -0.02732 -1.11836  0.016860  0.003415 -0.000740     4.937
   1.66962  0.61355 -0.02500 -1.11568  0.018086  0.003468 -0.000748     5.215
   1.68712  0.63090 -0.02268 -1.11327  0.019290  0.003518 -0.000738     5.483
   1.70462  0.64824 -0.02037 -1.11111  0.020460  0.003565 -0.000721     5.738
   1.72205  0.66552 -0.01809 -1.10916  0.021574  0.003610 -0.000701     5.976
   1.73939  0.68272 -0.01585 -1.10736  0.022636  0.003653 -0.000682     6.197
   1.75663  0.69982 -0.01367 -1.10570  0.023614  0.003694 -0.000665     6.393
   1.77378  0.71684 -0.01156 -1.10413  0.024504  0.003734 -0.000651     6.563
   1.79085  0.73379 -0.00953 -1.10263  0.025293  0.003773 -0.000638     6.703
   1.80784  0.75067 -0.00760 -1.10119  0.025978  0.003812 -0.000627     6.814
   1.82474  0.76746 -0.00576 -1.09977  0.026543  0.003852 -0.000618     6.891
   1.84154  0.78418 -0.00404 -1.09838  0.026983  0.003891 -0.000610     6.935
   1.85823  0.80079 -0.00245 -1.09699  0.027287  0.003931 -0.000603     6.941
   1.87481  0.81731 -0.00100 -1.09560  0.027441  0.003972 -0.000597     6.909
   1.89126  0.83371  0.00030 -1.09418  0.027434  0.004014 -0.000592     6.835
   1.90759  0.85000  0.00143 -1.09273  0.027257  0.004057 -0.000588     6.719
   1.92381  0.86619  0.00238 -1.09123  0.026899  0.004101 -0.000586     6.559
   1.93987  0.88223  0.00314 -1.08968  0.026361  0.004147 -0.000585     6.357
   1.95573  0.89808  0.00370 -1.08807  0.025636  0.004193 -0.000587     6.113
   1.97131  0.91366  0.00404 -1.08640  0.024720  0.004241 -0.000590     5.829
   1.98653  0.92887  0.00415 -1.08468  0.023608  0.004289 -0.000590     5.504
   2.00124  0.94358  0.00401 -1.08293  0.022316  0.004336 -0.000578     5.146
   2.01526  0.95760  0.00361 -1.08121  0.020876  0.004381 -0.000534     4.765
   2.02837  0.97069  0.00296 -1.07962  0.019336  0.004421 -0.000411     4.373
   2.04040  0.98268  0.00205 -1.07821  0.017772  0.004455 -0.000157     3.989
   2.05125  0.99348  0.00090 -1.07736  0.016305  0.004476  0.000247     3.643
   2.05783  1.00000  0.00000 -1.07629  0.017005  0.004502  0.000077     3.777
   2.05783  1.00010 -0.00002  1.07629  0.127516  0.007475  0.000000    17.059
   2.06446  1.00660 -0.00134  1.07230  0.121655  0.007996  0.000000    15.215
   2.07221  1.01423 -0.00265  1.06784  0.118845  0.008566  0.000000    13.874
   2.08127  1.02318 -0.00403  1.06254  0.116018  0.009241  0.000000    12.555
   2.09186  1.03367 -0.00553  1.05619  0.113006  0.010044  0.000000    11.251
   2.10423  1.04593 -0.00714  1.04855  0.109625  0.011006  0.000000     9.961
   2.11869  1.06029 -0.00889  1.03932  0.105731  0.012164  0.000000     8.692
   2.13560  1.07709 -0.01079  1.02818  0.101178  0.013560  0.000000     7.461
   2.15535  1.09674 -0.01285  1.01456  0.095813  0.015262  0.000000     6.278
   2.17845  1.11972 -0.01509  0.99743  0.089505  0.017403  0.000000     5.143
   2.20544  1.14660 -0.01750  0.97489  0.082182  0.020238  0.000000     4.061
   2.23698  1.17804 -0.02011  0.95003  0.073672  0.023389  0.000000     3.150
   2.27386  1.21480 -0.02292  0.93099  0.064104  0.025785  0.000000     2.486
   2.31695  1.25780 -0.02592  0.92062  0.054302  0.027041  0.000000     2.008
   2.36732  1.30806 -0.02913  0.92041  0.045325  0.027065  0.000000     1.675
   2.42619  1.36684 -0.03254  0.92846  0.038023  0.026239  0.000000     1.449
   2.49501  1.43555 -0.03614  0.94054  0.032636  0.025119  0.000000     1.299
   2.57543  1.51589 -0.03993  0.95286  0.028886  0.024080  0.000000     1.200
   2.66944  1.60981 -0.04389  0.96354  0.026336  0.023245  0.000000     1.133
   2.77931  1.71961 -0.04799  0.97217  0.024611  0.022609  0.000000     1.089
   2.90773  1.84796 -0.05220  0.97890  0.023441  0.022135  0.000000     1.059
   3.05782  1.99799 -0.05650  0.98610  0.022500  0.021646  0.000000     1.039
