#    s        x        y     Ue/Vinf    Dstar     Theta      Cf       H
   0.00000  1.00000  0.00000  1.08222  0.124035  0.002829 -0.000258    43.848
   0.00668  0.99360  0.00192  1.08203  0.120607  0.002853 -0.000705    42.268
   0.01807  0.98272  0.00530  1.08196  0.117405  0.002865 -0.000703    40.980
   0.03106  0.97032  0.00914  1.08189  0.113916  0.002877 -0.000700    39.601
   0.04516  0.95680  0.01317  1.08183  0.110338  0.002887 -0.000698    38.217
   0.06006  0.94246  0.01720  1.08179  0.106775  0.002896 -0.000696    36.869
   0.07565  0.92739  0.02118  1.08176  0.103254  0.002903 -0.000695    35.564
   0.09186  0.91167  0.02516  1.08175  0.099729  0.002910 -0.000694    34.276
   0.10852  0.89549  0.02915  1.08174  0.096152  0.002916 -0.000693    32.977
   0.12544  0.87905  0.03313  1.08172  0.092538  0.002922 -0.000692    31.668
   0.14250  0.86245  0.03708  1.08170  0.088896  0.002929 -0.000691    30.353
   0.15964  0.84577  0.04099  1.08168  0.085237  0.002936 -0.000690    29.036
   0.17681  0.82904  0.04484  1.08166  0.081566  0.002943 -0.000689    27.718
   0.19398  0.81229  0.04864  1.08163  0.077892  0.002950 -0.000688    26.402
   0.21115  0.79553  0.05238  1.08160  0.074219  0.002958 -0.000688    25.094
   0.22833  0.77875  0.05606  1.08156  0.070543  0.002965 -0.000687    23.789
   0.24546  0.76200  0.05967  1.08152  0.066870  0.002973 -0.000687    22.492
   0.26249  0.74535  0.06319  1.08148  0.063229  0.002981 -0.000686    21.213
   0.27941  0.72877  0.06660  1.08145  0.059645  0.002988 -0.000686    19.964
   0.29629  0.71222  0.06990  1.08143  0.056121  0.002994 -0.000687    18.747
   0.31313  0.69568  0.07308  1.08143  0.052655  0.002999 -0.000688    17.559
   0.32994  0.67915  0.07616  1.08145  0.049263  0.003002 -0.000689    16.407
   0.34670  0.66266  0.07911  1.08151  0.045940  0.003005 -0.000692    15.289
   0.36339  0.64620  0.08193  1.08161  0.042710  0.003005 -0.000695    14.213
   0.38005  0.62976  0.08462  1.08177  0.039577  0.003003 -0.000700    13.179
   0.39672  0.61329  0.08718  1.08201  0.036544  0.002998 -0.000705    12.188
   0.41338  0.59681  0.08962  1.08234  0.033605  0.002990 -0.000713    11.237
   0.42997  0.58038  0.09191  1.08281  0.030768  0.002979 -0.000723    10.328
   0.44649  0.56400  0.09406  1.08344  0.028070  0.002964 -0.000736     9.471
   0.46301  0.54760  0.09605  1.08428  0.025502  0.002943 -0.000753     8.664
   0.47954  0.53117  0.09790  1.08540  0.023060  0.002918 -0.000775     7.903
   0.49603  0.51477  0.09961  1.08685  0.020742  0.002886 -0.000804     7.186
   0.51242  0.49845  0.10115  1.08873  0.018584  0.002848 -0.000843     6.525
   0.52875  0.48218  0.10252  1.09115  0.016601  0.002802 -0.000891     5.924
   0.54509  0.46588  0.10371  1.09426  0.014781  0.002748 -0.000929     5.378
   0.56144  0.44957  0.10475  1.09817  0.013121  0.002686 -0.000915     4.886
   0.57774  0.43329  0.10561  1.10300  0.011618  0.002614 -0.000763     4.445
   0.59394  0.41711  0.10630  1.10870  0.010295  0.002535 -0.000395     4.061
   0.61007  0.40098  0.10679  1.11526  0.009154  0.002449  0.000214     3.738
   0.62617  0.38489  0.10708  1.12281  0.008172  0.002354  0.001050     3.471
   0.64227  0.36879  0.10718  1.13115  0.007342  0.002253  0.002051     3.259
   0.65836  0.35270  0.10708  1.13986  0.006641  0.002150  0.003171     3.089
   0.67432  0.33674  0.10680  1.14863  0.006023  0.002046  0.004457     2.944
   0.69010  0.32097  0.10629  1.15674  0.005512  0.001947  0.005769     2.831
   0.70583  0.30526  0.10554  1.16349  0.005122  0.001857  0.006875     2.758
   0.72167  0.28945  0.10454  1.16929  0.004784  0.001771  0.007955     2.701
   0.73747  0.27369  0.10335  1.17443  0.004453  0.001687  0.009229     2.640
   0.75302  0.25820  0.10195  1.17835  0.004142  0.001605  0.010674     2.580
   0.76841  0.24291  0.10027  1.17986  0.003899  0.001534  0.011849     2.542
   0.78386  0.22758  0.09831  1.17904  0.003723  0.001471  0.012551     2.531
   0.79934  0.21226  0.09610  1.17800  0.003516  0.001404  0.013660     2.504
   0.81467  0.19713  0.09366  1.17529  0.003324  0.001339  0.014759     2.482
   0.82983  0.18221  0.09095  1.17078  0.003148  0.001278  0.015822     2.464
   0.84493  0.16741  0.08797  1.16407  0.003010  0.001220  0.016411     2.466
   0.85995  0.15275  0.08473  1.15722  0.002836  0.001157  0.017583     2.452
   0.87475  0.13836  0.08125  1.14821  0.002680  0.001095  0.018569     2.446
   0.88915  0.12444  0.07757  1.13809  0.002488  0.001030  0.020441     2.416
   0.90314  0.11101  0.07364  1.12341  0.002350  0.000973  0.021364     2.416
   0.91683  0.09797  0.06946  1.10720  0.002212  0.000913  0.022242     2.422
   0.92993  0.08560  0.06517  1.09013  0.002046  0.000848  0.023910     2.412
   0.94206  0.07425  0.06087  1.06962  0.001852  0.000784  0.027203     2.363
   0.95332  0.06387  0.05649  1.04052  0.001740  0.000735  0.028081     2.366
   0.96371  0.05444  0.05215  1.01083  0.001633  0.000685  0.028561     2.384
   0.97301  0.04611  0.04801  0.98230  0.001498  0.000630  0.030417     2.379
   0.98119  0.03891  0.04412  0.95046  0.001354  0.000576  0.033520     2.349
   0.98837  0.03273  0.04046  0.91307  0.001257  0.000533  0.034386     2.358
   0.99470  0.02743  0.03701  0.87340  0.001130  0.000488  0.038001     2.318
   1.00030  0.02288  0.03375  0.82530  0.001054  0.000455  0.038492     2.318
   1.00527  0.01898  0.03066  0.77596  0.000976  0.000420  0.039001     2.321
   1.00973  0.01561  0.02774  0.72151  0.000884  0.000387  0.041347     2.286
   1.01375  0.01272  0.02495  0.65897  0.000831  0.000362  0.039719     2.298
   1.01739  0.01024  0.02228  0.59150  0.000756  0.000335  0.040602     2.260
   1.02073  0.00811  0.01971  0.51345  0.000721  0.000319  0.037028     2.258
   1.02380  0.00630  0.01724  0.43803  0.000674  0.000292  0.032215     2.309
   1.02664  0.00476  0.01485  0.34269  0.000597  0.000279  0.033113     2.140
   1.02926  0.00350  0.01255  0.25211  0.000675  0.000282  0.016960     2.398
   1.03171  0.00246  0.01033  0.16074  0.000457  0.000206  0.019030     2.214
   1.03400  0.00163  0.00819  0.02823  0.000566  0.000254  0.002662     2.230
   1.03618  0.00098  0.00612 -0.06709  0.000566  0.000254  0.006323     2.230
   1.03826  0.00048  0.00410 -0.18828  0.000458  0.000208  0.022513     2.199
   1.04024  0.00015  0.00214 -0.33497  0.000433  0.000194  0.041103     2.234
   1.04215  0.00001  0.00024 -0.48416  0.000421  0.000190  0.061965     2.219
   1.04400  0.00012 -0.00161 -0.65414  0.000390  0.000177  0.091699     2.200
   1.04587  0.00052 -0.00343 -0.80862  0.000417  0.000183  0.099514     2.273
   1.04780  0.00123 -0.00524 -0.92861  0.000458  0.000200  0.102560     2.288
   1.04986  0.00223 -0.00703 -1.03419  0.000493  0.000216  0.106231     2.286
   1.05205  0.00354 -0.00879 -1.11158  0.000564  0.000240  0.094072     2.349
   1.05438  0.00514 -0.01048 -1.16046  0.000650  0.000272  0.081772     2.392
   1.05689  0.00705 -0.01212 -1.19060  0.000749  0.000308  0.069813     2.434
   1.05960  0.00924 -0.01371 -1.20357  0.000879  0.000351  0.055917     2.503
   1.06254  0.01171 -0.01530 -1.21287  0.000980  0.000392  0.050728     2.500
   1.06576  0.01450 -0.01689 -1.22025  0.001086  0.000433  0.045662     2.508
   1.06931  0.01766 -0.01852 -1.22371  0.001212  0.000478  0.039724     2.537
   1.07328  0.02125 -0.02021 -1.22967  0.001301  0.000518  0.038322     2.510
   1.07773  0.02534 -0.02197 -1.23636  0.001399  0.000560  0.036171     2.501
   1.08275  0.03002 -0.02380 -1.24260  0.001510  0.000603  0.033613     2.503
   1.08845  0.03539 -0.02569 -1.24818  0.001630  0.000650  0.031111     2.507
   1.09493  0.04158 -0.02763 -1.25313  0.001760  0.000700  0.028771     2.513
   1.10237  0.04875 -0.02960 -1.25478  0.001934  0.000760  0.025281     2.546
   1.11095  0.05710 -0.03158 -1.25181  0.002163  0.000832  0.021213     2.601
   1.12083  0.06678 -0.03358 -1.24662  0.002401  0.000911  0.018258     2.636
   1.13204  0.07781 -0.03556 -1.24071  0.002638  0.000994  0.016190     2.654
   1.14448  0.09010 -0.03747 -1.23457  0.002880  0.001080  0.014564     2.665
   1.15809  0.10359 -0.03926 -1.22718  0.003160  0.001173  0.012744     2.694
   1.17266  0.11806 -0.04096 -1.22121  0.003387  0.001261  0.011941     2.686
   1.18781  0.13314 -0.04249 -1.21652  0.003591  0.001344  0.011414     2.672
   1.20335  0.14862 -0.04385 -1.21246  0.003796  0.001424  0.010854     2.665
   1.21923  0.16445 -0.04503 -1.20875  0.004001  0.001502  0.010294     2.663
   1.23540  0.18059 -0.04604 -1.20496  0.004218  0.001580  0.009662     2.669
   1.25175  0.19691 -0.04691 -1.20241  0.004380  0.001650  0.009450     2.654
   1.26813  0.21328 -0.04763 -1.19961  0.004572  0.001721  0.009008     2.657
   1.28457  0.22971 -0.04819 -1.19727  0.004742  0.001787  0.008705     2.653
   1.30115  0.24629 -0.04860 -1.19482  0.004925  0.001854  0.008334     2.656
   1.31783  0.26296 -0.04890 -1.19242  0.005106  0.001920  0.007988     2.660
   1.33448  0.27961 -0.04908 -1.19052  0.005258  0.001980  0.007788     2.655
   1.35110  0.29624 -0.04912 -1.18841  0.005429  0.002042  0.007497     2.659
   1.36778  0.31291 -0.04903 -1.18627  0.005602  0.002103  0.007206     2.664
   1.38450  0.32963 -0.04882 -1.18391  0.005788  0.002165  0.006875     2.674
   1.40120  0.34633 -0.04849 -1.18157  0.005969  0.002225  0.006585     2.683
   1.41786  0.36298 -0.04803 -1.17895  0.006169  0.002287  0.006244     2.697
   1.43449  0.37961 -0.04745 -1.17602  0.006387  0.002350  0.005867     2.718
   1.45114  0.39623 -0.04673 -1.17276  0.006627  0.002416  0.005459     2.743
   1.46777  0.41285 -0.04588 -1.16901  0.006907  0.002485  0.004982     2.780
   1.48439  0.42943 -0.04489 -1.16508  0.007198  0.002554  0.004531     2.818
   1.50097  0.44597 -0.04378 -1.16064  0.007544  0.002629  0.004006     2.870
   1.51751  0.46247 -0.04253 -1.15584  0.007941  0.002706  0.003451     2.935
   1.53401  0.47892 -0.04112 -1.15066  0.008411  0.002787  0.002847     3.019
   1.55050  0.49532 -0.03957 -1.14523  0.008968  0.002870  0.002216     3.125
   1.56702  0.51176 -0.03785 -1.13972  0.009627  0.002955  0.001579     3.258
   1.58368  0.52831 -0.03597 -1.13433  0.010398  0.003039  0.000970     3.421
   1.60055  0.54506 -0.03395 -1.12929  0.011250  0.003119  0.000450     3.607
   1.61761  0.56199 -0.03181 -1.12470  0.012165  0.003194  0.000039     3.809
   1.63483  0.57906 -0.02959 -1.12053  0.013120  0.003264 -0.000261     4.019
   1.65218  0.59626 -0.02732 -1.11671  0.014091  0.003331 -0.000464     4.231
   1.66962  0.61355 -0.02500 -1.11316  0.015066  0.003395 -0.000589     4.438
   1.68712  0.63090 -0.02268 -1.10989  0.016020  0.003456 -0.000660     4.636
   1.70462  0.64824 -0.02037 -1.10691  0.016940  0.003514 -0.000693     4.820
   1.72205  0.66552 -0.01809 -1.10417  0.017812  0.003570 -0.000705     4.990
   1.73939  0.68272 -0.01585 -1.10164  0.018634  0.003623 -0.000704     5.143
   1.75663  0.69982 -0.01367 -1.09929  0.019385  0.003674 -0.000697     5.276
   1.77378  0.71684 -0.01156 -1.09707  0.020054  0.003724 -0.000687     5.385
   1.79085  0.73379 -0.00953 -1.09496  0.020630  0.003773 -0.000677     5.468
   1.80784  0.75067 -0.00760 -1.09292  0.021112  0.003821 -0.000667     5.525
   1.82474  0.76746 -0.00576 -1.09095  0.021485  0.003869 -0.000658     5.553
   1.84154  0.78418 -0.00404 -1.08901  0.021744  0.003916 -0.000648     5.552
   1.85823  0.80079 -0.00245 -1.08710  0.021878  0.003964 -0.000640     5.519
   1.87481  0.81731 -0.00100 -1.08519  0.021875  0.004012 -0.000631     5.452
   1.89126  0.83371  0.00030 -1.08328  0.021725  0.004060 -0.000622     5.351
   1.90759  0.85000  0.00143 -1.08134  0.021419  0.004109 -0.000611     5.212
   1.92381  0.86619  0.00238 -1.07938  0.020948  0.004159 -0.000595     5.037
   1.93987  0.88223  0.00314 -1.07739  0.020316  0.004208 -0.000565     4.828
   1.95573  0.89808  0.00370 -1.07540  0.019516  0.004257 -0.000505     4.585
   1.97131  0.91366  0.00404 -1.07344  0.018549  0.004304 -0.000389     4.310
   1.98653  0.92887  0.00415 -1.07154  0.017413  0.004349 -0.000174     4.004
   2.00124  0.94358  0.00401 -1.07006  0.016126  0.004385  0.000198     3.678
   2.01526  0.95760  0.00361 -1.06976  0.014720  0.004394  0.000783     3.350
   2.02837  0.97069  0.00296 -1.07171  0.013236  0.004360  0.001639     3.036
   2.04040  0.98268  0.00205 -1.07702  0.011732  0.004267  0.002810     2.750
   2.05125  0.99348  0.00090 -1.08646  0.010290  0.004114  0.004320     2.501
   2.05783  1.00000  0.00000 -1.08222  0.010900  0.004199  0.003659     2.596
   2.05783  1.00010 -0.00002  1.08222  0.134935  0.007028  0.000000    19.199
   2.06446  1.00660 -0.00133  1.07917  0.129537  0.007443  0.000000    17.404
   2.07221  1.01424 -0.00263  1.07579  0.126966  0.007894  0.000000    16.084
   2.08127  1.02319 -0.00401  1.07173  0.124390  0.008430  0.000000    14.755
   2.09186  1.03367 -0.00547  1.06685  0.121653  0.009073  0.000000    13.409
   2.10423  1.04595 -0.00705  1.06094  0.118584  0.009846  0.000000    12.044
   2.11869  1.06031 -0.00876  1.05376  0.115050  0.010781  0.000000    10.671
   2.13560  1.07711 -0.01059  1.04499  0.110912  0.011917  0.000000     9.307
   2.15535  1.09677 -0.01257  1.03427  0.106014  0.013299  0.000000     7.972
   2.17845  1.11976 -0.01470  1.02108  0.100184  0.014989  0.000000     6.684
   2.20544  1.14666 -0.01698  1.00439  0.093260  0.017121  0.000000     5.447
   2.23698  1.17811 -0.01941  0.98232  0.085130  0.019938  0.000000     4.270
   2.27386  1.21489 -0.02198  0.95581  0.075696  0.023338  0.000000     3.243
   2.31695  1.25790 -0.02470  0.93569  0.065105  0.025890  0.000000     2.515
   2.36732  1.30819 -0.02754  0.92539  0.054422  0.027140  0.000000     2.005
   2.42619  1.36699 -0.03049  0.92618  0.044939  0.027051  0.000000     1.661
   2.49501  1.43574 -0.03351  0.93512  0.037529  0.026145  0.000000     1.435
   2.57543  1.51610 -0.03658  0.94725  0.032263  0.025037  0.000000     1.289
   2.66944  1.61006 -0.03963  0.95889  0.028694  0.024065  0.000000     1.192
   2.77931  1.71989 -0.04262  0.96860  0.026304  0.023311  0.000000     1.128
   2.90773  1.84828 -0.04545  0.97624  0.024701  0.022750  0.000000     1.086
   3.05782  1.99835 -0.04805  0.98490  0.023407  0.022141  0.000000     1.057
