#    s        x        y     Ue/Vinf    Dstar     Theta      Cf       H
   0.00000  1.00000  0.00000  1.07600  0.112918  0.002948 -0.000255    38.305
   0.00668  0.99360  0.00192  1.07578  0.109439  0.002974 -0.000674    36.796
   0.01807  0.98272  0.00530  1.07570  0.106358  0.002986 -0.000672    35.619
   0.03106  0.97032  0.00914  1.07562  0.103027  0.002998 -0.000670    34.370
   0.04516  0.95680  0.01317  1.07556  0.099634  0.003008 -0.000668    33.125
   0.06006  0.94246  0.01720  1.07552  0.096273  0.003016 -0.000666    31.918
   0.07565  0.92739  0.02118  1.07549  0.092965  0.003023 -0.000666    30.754
   0.09186  0.91167  0.02516  1.07549  0.089664  0.003028 -0.000665    29.608
   0.10852  0.89549  0.02915  1.07548  0.086318  0.003034 -0.000664    28.454
   0.12544  0.87905  0.03313  1.07548  0.082940  0.003039 -0.000664    27.294
   0.14250  0.86245  0.03708  1.07547  0.079537  0.003044 -0.000664    26.128
   0.15964  0.84577  0.04099  1.07546  0.076121  0.003050 -0.000663    24.961
   0.17681  0.82904  0.04484  1.07546  0.072697  0.003055 -0.000663    23.795
   0.19398  0.81229  0.04864  1.07545  0.069270  0.003061 -0.000663    22.632
   0.21115  0.79553  0.05238  1.07544  0.065848  0.003066 -0.000663    21.475
   0.22833  0.77875  0.05606  1.07543  0.062428  0.003072 -0.000663    20.325
   0.24546  0.76200  0.05967  1.07543  0.059012  0.003077 -0.000664    19.180
   0.26249  0.74535  0.06319  1.07543  0.055631  0.003081 -0.000665    18.054
   0.27941  0.72877  0.06660  1.07545  0.052310  0.003085 -0.000666    16.956
   0.29629  0.71222  0.06990  1.07550  0.049052  0.003087 -0.000668    15.888
   0.31313  0.69568  0.07308  1.07558  0.045860  0.003088 -0.000670    14.849
   0.32994  0.67915  0.07616  1.07570  0.042739  0.003088 -0.000674    13.842
   0.34670  0.66266  0.07911  1.07588  0.039694  0.003085 -0.000679    12.869
   0.36339  0.64620  0.08193  1.07613  0.036749  0.003079 -0.000685    11.935
   0.38005  0.62976  0.08462  1.07648  0.033903  0.003071 -0.000692    11.041
   0.39672  0.61329  0.08718  1.07696  0.031166  0.003058 -0.000702    10.190
   0.41338  0.59681  0.08962  1.07759  0.028526  0.003043 -0.000715     9.376
   0.42997  0.58038  0.09191  1.07841  0.025996  0.003022 -0.000731     8.601
   0.44649  0.56400  0.09406  1.07948  0.023605  0.002997 -0.000751     7.876
   0.46301  0.54760  0.09605  1.08087  0.021352  0.002966 -0.000778     7.199
   0.47954  0.53117  0.09790  1.08265  0.019237  0.002928 -0.000813     6.569
   0.49603  0.51477  0.09961  1.08491  0.017243  0.002884 -0.000858     5.979
   0.51242  0.49845  0.10115  1.08777  0.015411  0.002832 -0.000896     5.442
   0.52875  0.48218  0.10252  1.09136  0.013764  0.002772 -0.000894     4.966
   0.54509  0.46588  0.10371  1.09577  0.012272  0.002703 -0.000788     4.540
   0.56144  0.44957  0.10475  1.10102  0.010938  0.002627 -0.000508     4.164
   0.57774  0.43329  0.10561  1.10703  0.009748  0.002544  0.000001     3.831
   0.59394  0.41711  0.10630  1.11394  0.008724  0.002454  0.000719     3.556
   0.61007  0.40098  0.10679  1.12163  0.007850  0.002356  0.001609     3.332
   0.62617  0.38489  0.10708  1.12980  0.007114  0.002255  0.002608     3.154
   0.64227  0.36879  0.10718  1.13803  0.006495  0.002154  0.003668     3.015
   0.65836  0.35270  0.10708  1.14603  0.005963  0.002055  0.004787     2.901
   0.67432  0.33674  0.10680  1.15358  0.005486  0.001959  0.006019     2.801
   0.69010  0.32097  0.10629  1.16006  0.005087  0.001869  0.007228     2.722
   0.70583  0.30526  0.10554  1.16500  0.004773  0.001787  0.008238     2.671
   0.72167  0.28945  0.10454  1.16876  0.004507  0.001711  0.009134     2.635
   0.73747  0.27369  0.10335  1.17214  0.004222  0.001632  0.010338     2.587
   0.75302  0.25820  0.10195  1.17431  0.003945  0.001557  0.011752     2.534
   0.76841  0.24291  0.10027  1.17368  0.003742  0.001492  0.012737     2.508
   0.78386  0.22758  0.09831  1.17118  0.003579  0.001432  0.013418     2.499
   0.79934  0.21226  0.09610  1.16822  0.003396  0.001370  0.014398     2.479
   0.81467  0.19713  0.09366  1.16389  0.003212  0.001308  0.015538     2.456
   0.82983  0.18221  0.09095  1.15718  0.003063  0.001251  0.016334     2.449
   0.84493  0.16741  0.08797  1.14922  0.002914  0.001193  0.017167     2.442
   0.85995  0.15275  0.08473  1.13986  0.002765  0.001135  0.018028     2.437
   0.87475  0.13836  0.08125  1.12918  0.002610  0.001074  0.019069     2.430
   0.88915  0.12444  0.07757  1.11684  0.002436  0.001011  0.020644     2.409
   0.90314  0.11101  0.07364  1.10075  0.002279  0.000952  0.022082     2.393
   0.91683  0.09797  0.06946  1.08099  0.002159  0.000898  0.022618     2.405
   0.92993  0.08560  0.06517  1.06118  0.002013  0.000836  0.023729     2.409
   0.94206  0.07425  0.06087  1.03906  0.001805  0.000769  0.027556     2.347
   0.95332  0.06387  0.05649  1.00608  0.001704  0.000724  0.028078     2.353
   0.96371  0.05444  0.05215  0.97338  0.001606  0.000676  0.028153     2.377
   0.97301  0.04611  0.04801  0.94204  0.001459  0.000619  0.030594     2.356
   0.98119  0.03891  0.04412  0.90649  0.001348  0.000570  0.031643     2.364
   0.98837  0.03273  0.04046  0.86769  0.001203  0.000520  0.035644     2.313
   0.99470  0.02743  0.03701  0.82031  0.001134  0.000485  0.034935     2.337
   1.00030  0.02288  0.03375  0.77244  0.001021  0.000445  0.038025     2.295
   1.00527  0.01898  0.03066  0.71575  0.000959  0.000417  0.037265     2.301
   1.00973  0.01561  0.02774  0.65879  0.000887  0.000385  0.036935     2.306
   1.01375  0.01272  0.02495  0.59458  0.000800  0.000354  0.038414     2.264
   1.01739  0.01024  0.02228  0.52123  0.000758  0.000332  0.034831     2.286
   1.02073  0.00811  0.01971  0.44111  0.000689  0.000309  0.034170     2.228
   1.02380  0.00630  0.01724  0.35427  0.000675  0.000296  0.026684     2.282
   1.02664  0.00476  0.01485  0.26261  0.000613  0.000280  0.023568     2.194
   1.02926  0.00350  0.01255  0.16820  0.000634  0.000278  0.013487     2.281
   1.03171  0.00246  0.01033  0.06901  0.000500  0.000224  0.007363     2.230
   1.03400  0.00163  0.00819 -0.06017  0.000500  0.000224  0.006426     2.230
   1.03618  0.00098  0.00612 -0.16848  0.000547  0.000244  0.016199     2.246
   1.03826  0.00048  0.00410 -0.28571  0.000484  0.000221  0.032680     2.188
   1.04024  0.00015  0.00214 -0.43802  0.000423  0.000192  0.056705     2.200
   1.04215  0.00001  0.00024 -0.60217  0.000406  0.000183  0.079590     2.223
   1.04400  0.00012 -0.00161 -0.77215  0.000392  0.000177  0.106457     2.215
   1.04587  0.00052 -0.00343 -0.92219  0.000419  0.000184  0.113046     2.272
   1.04780  0.00123 -0.00524 -1.04600  0.000451  0.000198  0.118447     2.279
   1.04986  0.00223 -0.00703 -1.13904  0.000511  0.000219  0.107979     2.334
   1.05205  0.00354 -0.00879 -1.20983  0.000568  0.000242  0.102531     2.342
   1.05438  0.00514 -0.01048 -1.25635  0.000655  0.000273  0.086982     2.402
   1.05689  0.00705 -0.01212 -1.27735  0.000774  0.000312  0.069031     2.480
   1.05960  0.00924 -0.01371 -1.28330  0.000905  0.000356  0.055574     2.540
   1.06254  0.01171 -0.01530 -1.28693  0.001012  0.000398  0.049860     2.540
   1.06576  0.01450 -0.01689 -1.28910  0.001124  0.000441  0.044491     2.550
   1.06931  0.01766 -0.01852 -1.28935  0.001245  0.000485  0.039438     2.567
   1.07328  0.02125 -0.02021 -1.28950  0.001361  0.000530  0.036053     2.568
   1.07773  0.02534 -0.02197 -1.29155  0.001460  0.000573  0.034414     2.548
   1.08275  0.03002 -0.02380 -1.29441  0.001567  0.000617  0.032510     2.537
   1.08845  0.03539 -0.02569 -1.29692  0.001688  0.000665  0.030163     2.539
   1.09493  0.04158 -0.02763 -1.29755  0.001839  0.000719  0.027122     2.559
   1.10237  0.04875 -0.02960 -1.29550  0.002021  0.000780  0.023755     2.591
   1.11095  0.05710 -0.03158 -1.28956  0.002257  0.000853  0.019907     2.644
   1.12083  0.06678 -0.03358 -1.28151  0.002509  0.000934  0.016943     2.685
   1.13204  0.07781 -0.03556 -1.27282  0.002763  0.001020  0.014862     2.708
   1.14448  0.09010 -0.03747 -1.26379  0.003027  0.001110  0.013155     2.727
   1.15809  0.10359 -0.03926 -1.25433  0.003312  0.001204  0.011587     2.750
   1.17266  0.11806 -0.04096 -1.24580  0.003569  0.001296  0.010642     2.753
   1.18781  0.13314 -0.04249 -1.23905  0.003780  0.001382  0.010225     2.735
   1.20335  0.14862 -0.04385 -1.23306  0.003996  0.001466  0.009723     2.727
   1.21923  0.16445 -0.04503 -1.22748  0.004218  0.001547  0.009175     2.726
   1.23540  0.18059 -0.04604 -1.22237  0.004434  0.001627  0.008694     2.726
   1.25175  0.19691 -0.04691 -1.21806  0.004624  0.001701  0.008393     2.718
   1.26813  0.21328 -0.04763 -1.21417  0.004810  0.001773  0.008095     2.713
   1.28457  0.22971 -0.04819 -1.21036  0.005007  0.001844  0.007733     2.715
   1.30115  0.24629 -0.04860 -1.20665  0.005205  0.001914  0.007374     2.719
   1.31783  0.26296 -0.04890 -1.20319  0.005394  0.001982  0.007077     2.721
   1.33448  0.27961 -0.04908 -1.20004  0.005570  0.002047  0.006843     2.720
   1.35110  0.29624 -0.04912 -1.19683  0.005758  0.002112  0.006556     2.726
   1.36778  0.31291 -0.04903 -1.19347  0.005962  0.002178  0.006225     2.737
   1.38450  0.32963 -0.04882 -1.19009  0.006169  0.002244  0.005905     2.750
   1.40120  0.34633 -0.04849 -1.18669  0.006378  0.002309  0.005600     2.763
   1.41786  0.36298 -0.04803 -1.18300  0.006615  0.002376  0.005231     2.785
   1.43449  0.37961 -0.04745 -1.17901  0.006880  0.002445  0.004819     2.814
   1.45114  0.39623 -0.04673 -1.17472  0.007175  0.002516  0.004372     2.852
   1.46777  0.41285 -0.04588 -1.17011  0.007509  0.002590  0.003891     2.900
   1.48439  0.42943 -0.04489 -1.16524  0.007882  0.002666  0.003391     2.957
   1.50097  0.44597 -0.04378 -1.16005  0.008323  0.002745  0.002839     3.032
   1.51751  0.46247 -0.04253 -1.15473  0.008819  0.002826  0.002290     3.121
   1.53401  0.47892 -0.04112 -1.14925  0.009422  0.002909  0.001694     3.239
   1.55050  0.49532 -0.03957 -1.14388  0.010113  0.002991  0.001125     3.381
   1.56702  0.51176 -0.03785 -1.13875  0.010936  0.003071  0.000574     3.561
   1.58368  0.52831 -0.03597 -1.13402  0.011878  0.003146  0.000100     3.775
   1.60055  0.54506 -0.03395 -1.12977  0.012916  0.003216 -0.000263     4.016
   1.61761  0.56199 -0.03181 -1.12591  0.014024  0.003282 -0.000508     4.273
   1.63483  0.57906 -0.02959 -1.12237  0.015179  0.003345 -0.000652     4.538
   1.65218  0.59626 -0.02732 -1.11919  0.016357  0.003404 -0.000721     4.805
   1.66962  0.61355 -0.02500 -1.11635  0.017535  0.003459 -0.000743     5.069
   1.68712  0.63090 -0.02268 -1.11381  0.018696  0.003511 -0.000740     5.325
   1.70462  0.64824 -0.02037 -1.11152  0.019818  0.003560 -0.000728     5.567
   1.72205  0.66552 -0.01809 -1.10943  0.020892  0.003607 -0.000710     5.793
   1.73939  0.68272 -0.01585 -1.10753  0.021906  0.003651 -0.000691     6.000
   1.75663  0.69982 -0.01367 -1.10576  0.022846  0.003694 -0.000674     6.185
   1.77378  0.71684 -0.01156 -1.10409  0.023691  0.003735 -0.000659     6.343
   1.79085  0.73379 -0.00953 -1.10250  0.024440  0.003776 -0.000646     6.472
   1.80784  0.75067 -0.00760 -1.10096  0.025086  0.003817 -0.000634     6.572
   1.82474  0.76746 -0.00576 -1.09946  0.025613  0.003857 -0.000625     6.640
   1.84154  0.78418 -0.00404 -1.09798  0.026018  0.003898 -0.000616     6.674
   1.85823  0.80079 -0.00245 -1.09651  0.026284  0.003940 -0.000609     6.672
   1.87481  0.81731 -0.00100 -1.09504  0.026405  0.003982 -0.000603     6.632
   1.89126  0.83371  0.00030 -1.09354  0.026366  0.004024 -0.000598     6.551
   1.90759  0.85000  0.00143 -1.09201  0.026158  0.004069 -0.000595     6.429
   1.92381  0.86619  0.00238 -1.09043  0.025771  0.004114 -0.000594     6.264
   1.93987  0.88223  0.00314 -1.08880  0.025207  0.004160 -0.000594     6.059
   1.95573  0.89808  0.00370 -1.08711  0.024457  0.004208 -0.000596     5.812
   1.97131  0.91366  0.00404 -1.08537  0.023519  0.004256 -0.000595     5.526
   1.98653  0.92887  0.00415 -1.08358  0.022387  0.004304 -0.000585     5.201
   2.00124  0.94358  0.00401 -1.08179  0.021078  0.004351 -0.000551     4.845
   2.01526  0.95760  0.00361 -1.08007  0.019625  0.004394 -0.000452     4.466
   2.02837  0.97069  0.00296 -1.07850  0.018075  0.004432 -0.000232     4.078
   2.04040  0.98268  0.00205 -1.07738  0.016501  0.004459  0.000165     3.700
   2.05125  0.99348  0.00090 -1.07745  0.015018  0.004460  0.000741     3.367
   2.05783  1.00000  0.00000 -1.07600  0.015691  0.004494  0.000492     3.491
   2.05783  1.00010 -0.00002  1.07600  0.128608  0.007442  0.000000    17.281
   2.06446  1.00660 -0.00134  1.07228  0.122822  0.007932  0.000000    15.485
   2.07221  1.01423 -0.00264  1.06813  0.120044  0.008466  0.000000    14.179
   2.08127  1.02319 -0.00403  1.06318  0.117254  0.009100  0.000000    12.886
   2.09186  1.03367 -0.00552  1.05725  0.114284  0.009854  0.000000    11.597
   2.10423  1.04594 -0.00713  1.05010  0.110954  0.010760  0.000000    10.312
   2.11869  1.06029 -0.00887  1.04145  0.107124  0.011851  0.000000     9.040
   2.13560  1.07709 -0.01076  1.03094  0.102650  0.013170  0.000000     7.794
   2.15535  1.09674 -0.01281  1.01816  0.097374  0.014770  0.000000     6.593
   2.17845  1.11973 -0.01503  1.00214  0.091159  0.016772  0.000000     5.435
   2.20544  1.14661 -0.01742  0.98127  0.083902  0.019386  0.000000     4.328
   2.23698  1.17805 -0.02001  0.95583  0.075505  0.022596  0.000000     3.342
   2.27386  1.21482 -0.02278  0.93537  0.065932  0.025167  0.000000     2.620
   2.31695  1.25781 -0.02574  0.92306  0.055955  0.026663  0.000000     2.099
   2.36732  1.30808 -0.02889  0.92103  0.046651  0.026894  0.000000     1.735
   2.42619  1.36686 -0.03223  0.92791  0.038966  0.026180  0.000000     1.488
   2.49501  1.43558 -0.03575  0.93957  0.033248  0.025090  0.000000     1.325
   2.57543  1.51593 -0.03943  0.95192  0.029259  0.024041  0.000000     1.217
   2.66944  1.60985 -0.04325  0.96278  0.026548  0.023190  0.000000     1.145
   2.77931  1.71965 -0.04718  0.97158  0.024717  0.022540  0.000000     1.097
   2.90773  1.84801 -0.05119  0.97847  0.023478  0.022056  0.000000     1.065
   3.05782  1.99805 -0.05523  0.98590  0.022482  0.021552  0.000000     1.043
