#    s        x        y     Ue/Vinf    Dstar     Theta      Cf       H
   0.00000  1.00000  0.00000  1.16037  0.159594  0.002418 -0.000296    66.013
   0.00650  0.99435  0.00320  1.16018  0.155555  0.002446 -0.000878    63.599
   0.01711  0.98462  0.00744  1.16010  0.151765  0.002460 -0.000873    61.682
   0.02876  0.97379  0.01174  1.16003  0.147872  0.002474 -0.000868    59.774
   0.04187  0.96143  0.01612  1.15998  0.143989  0.002484 -0.000865    57.971
   0.05599  0.94801  0.02051  1.15995  0.140075  0.002492 -0.000862    56.211
   0.07098  0.93367  0.02489  1.15994  0.136173  0.002498 -0.000860    54.509
   0.08668  0.91860  0.02928  1.15994  0.132221  0.002504 -0.000859    52.811
   0.10278  0.90311  0.03366  1.15993  0.128215  0.002509 -0.000857    51.098
   0.11911  0.88737  0.03799  1.15993  0.124189  0.002515 -0.000856    49.379
   0.13559  0.87145  0.04226  1.15992  0.120139  0.002521 -0.000854    47.653
   0.15221  0.85538  0.04650  1.15991  0.116044  0.002528 -0.000852    45.904
   0.16888  0.83925  0.05069  1.15988  0.111908  0.002536 -0.000850    44.133
   0.18548  0.82316  0.05481  1.15985  0.107753  0.002544 -0.000848    42.350
   0.20199  0.80715  0.05881  1.15981  0.103627  0.002553 -0.000845    40.584
   0.21857  0.79104  0.06274  1.15976  0.099519  0.002563 -0.000843    38.835
   0.23528  0.77479  0.06665  1.15971  0.095344  0.002573 -0.000840    37.059
   0.25193  0.75860  0.07055  1.15963  0.091089  0.002585 -0.000837    35.243
   0.26841  0.74256  0.07432  1.15954  0.086858  0.002597 -0.000834    33.446
   0.28484  0.72654  0.07798  1.15945  0.082685  0.002609 -0.000831    31.689
   0.30137  0.71040  0.08155  1.15935  0.078511  0.002622 -0.000828    29.946
   0.31793  0.69422  0.08506  1.15923  0.074321  0.002635 -0.000825    28.208
   0.33438  0.67812  0.08845  1.15911  0.070168  0.002648 -0.000822    26.499
   0.35065  0.66217  0.09168  1.15899  0.066097  0.002661 -0.000819    24.842
   0.36678  0.64634  0.09474  1.15887  0.062132  0.002673 -0.000817    23.246
   0.38293  0.63045  0.09763  1.15877  0.058281  0.002684 -0.000816    21.718
   0.39926  0.61436  0.10039  1.15868  0.054494  0.002693 -0.000815    20.236
   0.41566  0.59817  0.10307  1.15861  0.050724  0.002702 -0.000815    18.774
   0.43180  0.58223  0.10559  1.15854  0.047036  0.002710 -0.000816    17.357
   0.44763  0.56657  0.10787  1.15852  0.043556  0.002715 -0.000817    16.040
   0.46352  0.55081  0.10991  1.15859  0.040285  0.002718 -0.000821    14.824
   0.47977  0.53467  0.11181  1.15874  0.037097  0.002717 -0.000826    13.655
   0.49618  0.51837  0.11365  1.15897  0.033899  0.002714 -0.000833    12.491
   0.51229  0.50234  0.11533  1.15929  0.030814  0.002708 -0.000842    11.378
   0.52811  0.48659  0.11678  1.15979  0.027957  0.002698 -0.000855    10.361
   0.54397  0.47078  0.11798  1.16054  0.025315  0.002683 -0.000872     9.437
   0.56005  0.45473  0.11903  1.16159  0.022790  0.002661 -0.000894     8.563
   0.57624  0.43857  0.11993  1.16300  0.020362  0.002634 -0.000925     7.730
   0.59232  0.42250  0.12067  1.16487  0.018079  0.002601 -0.000967     6.952
   0.60821  0.40663  0.12121  1.16734  0.015982  0.002559 -0.001023     6.245
   0.62395  0.39089  0.12154  1.17057  0.014100  0.002510 -0.001086     5.618
   0.63976  0.37507  0.12162  1.17480  0.012434  0.002451 -0.001104     5.074
   0.65588  0.35896  0.12150  1.18025  0.010945  0.002380 -0.000999     4.598
   0.67205  0.34278  0.12126  1.18694  0.009531  0.002301 -0.000593     4.142
   0.68772  0.32712  0.12088  1.19467  0.008244  0.002215  0.000302     3.722
   0.70294  0.31192  0.12021  1.20356  0.007253  0.002121  0.001484     3.420
   0.71839  0.29650  0.11916  1.21298  0.006578  0.002024  0.002505     3.249
   0.73435  0.28059  0.11790  1.22314  0.005966  0.001923  0.003699     3.103
   0.75001  0.26498  0.11659  1.23461  0.005251  0.001811  0.005874     2.899
   0.76493  0.25014  0.11506  1.24453  0.004702  0.001709  0.008094     2.750
   0.77982  0.23538  0.11308  1.24994  0.004453  0.001634  0.008871     2.724
   0.79538  0.22001  0.11073  1.25430  0.004292  0.001564  0.009000     2.745
   0.81102  0.20455  0.10830  1.26221  0.003907  0.001470  0.011059     2.659
   0.82600  0.18980  0.10573  1.26856  0.003522  0.001378  0.013890     2.555
   0.84071  0.17539  0.10277  1.26835  0.003335  0.001314  0.014937     2.539
   0.85573  0.16075  0.09940  1.26619  0.003206  0.001253  0.015178     2.559
   0.87095  0.14598  0.09573  1.26564  0.003016  0.001181  0.016219     2.554
   0.88579  0.13165  0.09188  1.26557  0.002750  0.001100  0.018868     2.499
   0.89983  0.11819  0.08789  1.26170  0.002464  0.001023  0.023034     2.410
   0.91347  0.10527  0.08349  1.24635  0.002370  0.000976  0.023225     2.428
   0.92739  0.09224  0.07859  1.23117  0.002392  0.000932  0.019598     2.567
   0.94066  0.07986  0.07383  1.23077  0.002040  0.000834  0.026120     2.447
   0.95248  0.06901  0.06916  1.21467  0.001705  0.000755  0.037029     2.259
   0.96382  0.05892  0.06397  1.16619  0.001777  0.000751  0.030842     2.365
   0.97504  0.04908  0.05858  1.13884  0.001792  0.000710  0.025346     2.525
   0.98519  0.04021  0.05364  1.13156  0.001545  0.000620  0.030251     2.492
   0.99394  0.03275  0.04906  1.11547  0.001302  0.000539  0.038193     2.418
   1.00154  0.02656  0.04467  1.08087  0.001124  0.000477  0.045589     2.356
   1.00822  0.02140  0.04041  1.02703  0.001002  0.000433  0.050549     2.315
   1.01417  0.01712  0.03630  0.95994  0.000925  0.000401  0.051532     2.308
   1.01944  0.01357  0.03239  0.88711  0.000849  0.000370  0.052548     2.294
   1.02410  0.01067  0.02874  0.80944  0.000788  0.000342  0.051224     2.303
   1.02824  0.00834  0.02532  0.72372  0.000712  0.000316  0.052988     2.255
   1.03198  0.00648  0.02208  0.62198  0.000683  0.000306  0.048348     2.234
   1.03538  0.00498  0.01903  0.51998  0.000677  0.000304  0.040895     2.231
   1.03846  0.00375  0.01620  0.42686  0.000673  0.000300  0.033409     2.244
   1.04123  0.00271  0.01363  0.34222  0.000648  0.000288  0.027658     2.251
   1.04375  0.00182  0.01128  0.25809  0.000607  0.000270  0.022294     2.249
   1.04608  0.00108  0.00907  0.16693  0.000555  0.000247  0.015792     2.247
   1.04827  0.00045  0.00697  0.06025  0.000502  0.000225  0.006402     2.230
   1.05034 -0.00004  0.00496 -0.05492  0.000502  0.000225  0.005829     2.230
   1.05225 -0.00030  0.00307 -0.21762  0.000363  0.000165  0.032793     2.199
   1.05403 -0.00027  0.00128 -0.41911  0.000351  0.000156  0.062685     2.247
   1.05576  0.00014 -0.00040 -0.60460  0.000361  0.000162  0.088755     2.235
   1.05758  0.00098 -0.00201 -0.73700  0.000438  0.000187  0.081387     2.336
   1.05959  0.00220 -0.00360 -0.81770  0.000527  0.000224  0.074168     2.348
   1.06184  0.00375 -0.00524 -0.87827  0.000614  0.000260  0.067684     2.359
   1.06427  0.00552 -0.00691 -0.95208  0.000620  0.000274  0.079586     2.262
   1.06684  0.00750 -0.00855 -1.04605  0.000612  0.000275  0.091496     2.227
   1.06954  0.00974 -0.01005 -1.12841  0.000655  0.000286  0.087443     2.285
   1.07245  0.01235 -0.01133 -1.16627  0.000794  0.000326  0.064189     2.438
   1.07572  0.01544 -0.01240 -1.16119  0.001047  0.000394  0.037990     2.658
   1.07954  0.01914 -0.01337 -1.13961  0.001343  0.000476  0.023691     2.820
   1.08406  0.02353 -0.01441 -1.12020  0.001568  0.000558  0.020181     2.811
   1.08932  0.02866 -0.01558 -1.11354  0.001639  0.000621  0.023732     2.642
   1.09534  0.03457 -0.01677 -1.11639  0.001707  0.000673  0.025745     2.537
   1.10233  0.04147 -0.01783 -1.11622  0.001903  0.000741  0.022253     2.570
   1.11067  0.04976 -0.01874 -1.10916  0.002207  0.000830  0.017161     2.661
   1.12068  0.05974 -0.01955 -1.09618  0.002602  0.000939  0.012562     2.770
   1.13222  0.07125 -0.02043 -1.08677  0.002836  0.001039  0.012031     2.729
   1.14472  0.08371 -0.02136 -1.08820  0.002833  0.001103  0.014608     2.568
   1.15796  0.09694 -0.02194 -1.08535  0.003113  0.001193  0.012647     2.609
   1.17230  0.11127 -0.02228 -1.07839  0.003497  0.001300  0.010166     2.690
   1.18740  0.12637 -0.02271 -1.07738  0.003592  0.001374  0.010828     2.614
   1.20272  0.14169 -0.02300 -1.07830  0.003700  0.001441  0.011081     2.568
   1.21832  0.15728 -0.02305 -1.07736  0.003923  0.001518  0.010263     2.583
   1.23436  0.17333 -0.02290 -1.07491  0.004191  0.001602  0.009238     2.616
   1.25077  0.18973 -0.02264 -1.07261  0.004421  0.001682  0.008609     2.628
   1.26709  0.20605 -0.02235 -1.07219  0.004543  0.001746  0.008634     2.602
   1.28304  0.22200 -0.02194 -1.07197  0.004678  0.001807  0.008513     2.588
   1.29899  0.23793 -0.02129 -1.06925  0.004959  0.001885  0.007632     2.630
   1.31528  0.25421 -0.02049 -1.06571  0.005258  0.001966  0.006815     2.674
   1.33169  0.27059 -0.01969 -1.06356  0.005431  0.002034  0.006611     2.670
   1.34788  0.28676 -0.01882 -1.06162  0.005597  0.002098  0.006424     2.668
   1.36401  0.30285 -0.01777 -1.05851  0.005857  0.002172  0.005906     2.697
   1.38036  0.31916 -0.01656 -1.05434  0.006193  0.002254  0.005219     2.748
   1.39692  0.33567 -0.01524 -1.05006  0.006519  0.002335  0.004666     2.792
   1.41346  0.35215 -0.01385 -1.04562  0.006853  0.002417  0.004167     2.836
   1.42992  0.36854 -0.01235 -1.04079  0.007235  0.002502  0.003630     2.892
   1.44638  0.38492 -0.01075 -1.03568  0.007660  0.002589  0.003090     2.959
   1.46292  0.40138 -0.00904 -1.03030  0.008149  0.002679  0.002533     3.042
   1.47958  0.41794 -0.00724 -1.02484  0.008688  0.002771  0.002005     3.136
   1.49632  0.43457 -0.00537 -1.01946  0.009264  0.002862  0.001533     3.237
   1.51304  0.45119 -0.00345 -1.01428  0.009872  0.002950  0.001117     3.346
   1.52972  0.46774 -0.00148 -1.00934  0.010527  0.003037  0.000745     3.466
   1.54641  0.48431  0.00056 -1.00462  0.011274  0.003122  0.000391     3.612
   1.56320  0.50097  0.00267 -1.00022  0.012074  0.003203  0.000095     3.770
   1.58006  0.51769  0.00478 -0.99616  0.012891  0.003280 -0.000130     3.931
   1.59687  0.53438  0.00686 -0.99241  0.013700  0.003353 -0.000291     4.086
   1.61362  0.55100  0.00888 -0.98895  0.014477  0.003423 -0.000399     4.230
   1.63036  0.56763  0.01084 -0.98569  0.015221  0.003491 -0.000469     4.360
   1.64712  0.58427  0.01276 -0.98264  0.015949  0.003557 -0.000516     4.484
   1.66379  0.60084  0.01462 -0.97979  0.016664  0.003620 -0.000547     4.603
   1.68029  0.61725  0.01638 -0.97715  0.017329  0.003681 -0.000563     4.708
   1.69671  0.63359  0.01802 -0.97465  0.017903  0.003740 -0.000568     4.787
   1.71317  0.64997  0.01954 -0.97226  0.018402  0.003798 -0.000567     4.845
   1.72967  0.66642  0.02098 -0.96996  0.018858  0.003856 -0.000563     4.891
   1.74610  0.68279  0.02231 -0.96775  0.019270  0.003912 -0.000558     4.926
   1.76237  0.69901  0.02351 -0.96563  0.019604  0.003967 -0.000551     4.942
   1.77854  0.71515  0.02454 -0.96357  0.019830  0.004021 -0.000541     4.931
   1.79470  0.73129  0.02541 -0.96154  0.019953  0.004076 -0.000529     4.896
   1.81087  0.74744  0.02613 -0.95953  0.019991  0.004130 -0.000514     4.841
   1.82699  0.76356  0.02670 -0.95755  0.019943  0.004184 -0.000496     4.766
   1.84301  0.77957  0.02709 -0.95559  0.019802  0.004238 -0.000471     4.673
   1.85891  0.79546  0.02729 -0.95364  0.019558  0.004291 -0.000437     4.557
   1.87467  0.81122  0.02727 -0.95173  0.019192  0.004344 -0.000386     4.418
   1.89031  0.82686  0.02702 -0.94983  0.018691  0.004396 -0.000310     4.252
   1.90585  0.84240  0.02652 -0.94796  0.018047  0.004448 -0.000190     4.057
   1.92132  0.85785  0.02576 -0.94620  0.017265  0.004496 -0.000008     3.840
   1.93672  0.87321  0.02473 -0.94478  0.016350  0.004536  0.000262     3.604
   1.95200  0.88844  0.02342 -0.94406  0.015322  0.004559  0.000645     3.361
   1.96712  0.90348  0.02184 -0.94454  0.014197  0.004554  0.001170     3.117
   1.98200  0.91824  0.01998 -0.94690  0.012984  0.004510  0.001875     2.879
   1.99654  0.93262  0.01783 -0.95198  0.011704  0.004415  0.002811     2.651
   2.01063  0.94649  0.01537 -0.96096  0.010359  0.004257  0.004072     2.433
   2.02403  0.95961  0.01263 -0.97533  0.008977  0.004026  0.005798     2.230
   2.03667  0.97187  0.00956 -0.99942  0.007456  0.003684  0.008508     2.024
   2.04859  0.98329  0.00614 -1.03977  0.005850  0.003211  0.013095     1.822
   2.05956  0.99363  0.00248 -1.12473  0.003948  0.002474  0.024225     1.595
   2.06640  1.00000  0.00000 -1.16037  0.003569  0.002278  0.028092     1.567
   2.06640  1.00009 -0.00005  1.16037  0.163164  0.004695  0.000000    34.750
   2.07306  1.00621 -0.00269  1.15652  0.161069  0.005268  0.000000    30.573
   2.08085  1.01358 -0.00521  1.15208  0.160270  0.005930  0.000000    27.027
   2.08996  1.02230 -0.00783  1.14684  0.159420  0.006719  0.000000    23.726
   2.10059  1.03257 -0.01060  1.14068  0.158386  0.007655  0.000000    20.691
   2.11302  1.04464 -0.01355  1.13345  0.157038  0.008765  0.000000    17.916
   2.12753  1.05881 -0.01670  1.12495  0.155254  0.010086  0.000000    15.393
   2.14450  1.07543 -0.02008  1.11496  0.152896  0.011660  0.000000    13.113
   2.16432  1.09492 -0.02369  1.10333  0.149780  0.013516  0.000000    11.081
   2.18747  1.11775 -0.02754  1.08957  0.145721  0.015746  0.000000     9.254
   2.21453  1.14450 -0.03163  1.07311  0.140489  0.018457  0.000000     7.612
   2.24614  1.17581 -0.03596  1.05319  0.133823  0.021795  0.000000     6.140
   2.28308  1.21247 -0.04051  1.02853  0.125475  0.026021  0.000000     4.822
   2.32623  1.25536 -0.04525  0.99609  0.115379  0.031766  0.000000     3.632
   2.37665  1.30554 -0.05015  0.96478  0.103151  0.037495  0.000000     2.751
   2.43557  1.36424 -0.05516  0.94401  0.089462  0.041314  0.000000     2.165
   2.50440  1.43289 -0.06020  0.93517  0.075978  0.042886  0.000000     1.772
   2.58482  1.51316 -0.06519  0.93693  0.064288  0.042593  0.000000     1.509
   2.67879  1.60700 -0.07001  0.94526  0.055227  0.041323  0.000000     1.336
   2.78858  1.71670 -0.07452  0.95576  0.048718  0.039853  0.000000     1.222
   2.91685  1.84491 -0.07856  0.96577  0.044210  0.038552  0.000000     1.147
   3.06673  1.99475 -0.08190  0.98186  0.040073  0.036616  0.000000     1.094
