#    s        x        y     Ue/Vinf    Dstar     Theta      Cf       H
   0.00000  1.00000  0.00000  1.12672  0.162425  0.002466 -0.000279    65.875
   0.00668  0.99360  0.00192  1.12660  0.159070  0.002485 -0.000839    64.003
   0.01807  0.98272  0.00530  1.12657  0.155644  0.002493 -0.000836    62.433
   0.03106  0.97032  0.00914  1.12654  0.151845  0.002501 -0.000834    60.715
   0.04516  0.95680  0.01317  1.12653  0.147891  0.002508 -0.000832    58.964
   0.06006  0.94246  0.01720  1.12652  0.143902  0.002514 -0.000830    57.238
   0.07565  0.92739  0.02118  1.12652  0.139912  0.002519 -0.000829    55.549
   0.09186  0.91167  0.02516  1.12653  0.135880  0.002523 -0.000828    53.864
   0.10852  0.89549  0.02915  1.12654  0.131763  0.002527 -0.000827    52.144
   0.12544  0.87905  0.03313  1.12655  0.127580  0.002532 -0.000825    50.392
   0.14250  0.86245  0.03708  1.12655  0.123348  0.002537 -0.000824    48.613
   0.15964  0.84577  0.04099  1.12654  0.119074  0.002544 -0.000822    46.809
   0.17681  0.82904  0.04484  1.12652  0.114769  0.002551 -0.000820    44.988
   0.19398  0.81229  0.04864  1.12650  0.110439  0.002559 -0.000818    43.152
   0.21115  0.79553  0.05238  1.12646  0.106090  0.002568 -0.000816    41.309
   0.22833  0.77875  0.05606  1.12642  0.101717  0.002578 -0.000813    39.455
   0.24546  0.76200  0.05967  1.12636  0.097327  0.002589 -0.000811    37.597
   0.26249  0.74535  0.06319  1.12630  0.092954  0.002600 -0.000808    35.751
   0.27941  0.72877  0.06660  1.12622  0.088618  0.002612 -0.000805    33.932
   0.29629  0.71222  0.06990  1.12614  0.084321  0.002623 -0.000802    32.142
   0.31313  0.69568  0.07308  1.12606  0.080064  0.002635 -0.000800    30.382
   0.32994  0.67915  0.07616  1.12597  0.075855  0.002647 -0.000797    28.657
   0.34670  0.66266  0.07911  1.12588  0.071700  0.002658 -0.000795    26.970
   0.36339  0.64620  0.08193  1.12579  0.067609  0.002670 -0.000793    25.325
   0.38005  0.62976  0.08462  1.12571  0.063599  0.002680 -0.000791    23.730
   0.39672  0.61329  0.08718  1.12564  0.059661  0.002690 -0.000790    22.180
   0.41338  0.59681  0.08962  1.12557  0.055790  0.002699 -0.000790    20.673
   0.42997  0.58038  0.09191  1.12552  0.051998  0.002706 -0.000790    19.212
   0.44649  0.56400  0.09406  1.12550  0.048324  0.002713 -0.000791    17.814
   0.46301  0.54760  0.09605  1.12552  0.044748  0.002717 -0.000793    16.469
   0.47954  0.53117  0.09790  1.12558  0.041267  0.002719 -0.000796    15.175
   0.49603  0.51477  0.09961  1.12571  0.037881  0.002719 -0.000800    13.930
   0.51242  0.49845  0.10115  1.12593  0.034629  0.002717 -0.000807    12.747
   0.52875  0.48218  0.10252  1.12627  0.031529  0.002710 -0.000816    11.635
   0.54509  0.46588  0.10371  1.12678  0.028560  0.002699 -0.000828    10.581
   0.56144  0.44957  0.10475  1.12751  0.025718  0.002684 -0.000845     9.583
   0.57774  0.43329  0.10561  1.12852  0.023026  0.002663 -0.000867     8.648
   0.59394  0.41711  0.10630  1.12989  0.020499  0.002635 -0.000897     7.778
   0.61007  0.40098  0.10679  1.13175  0.018159  0.002601 -0.000938     6.982
   0.62617  0.38489  0.10708  1.13425  0.016003  0.002558 -0.000994     6.256
   0.64227  0.36879  0.10718  1.13757  0.014033  0.002505 -0.001058     5.601
   0.65836  0.35270  0.10708  1.14194  0.012243  0.002443 -0.001069     5.012
   0.67432  0.33674  0.10680  1.14750  0.010641  0.002370 -0.000908     4.490
   0.69010  0.32097  0.10629  1.15425  0.009256  0.002289 -0.000427     4.044
   0.70583  0.30526  0.10554  1.16219  0.008117  0.002199  0.000385     3.692
   0.72167  0.28945  0.10454  1.17146  0.007163  0.002099  0.001490     3.413
   0.73747  0.27369  0.10335  1.18180  0.006327  0.001991  0.002937     3.177
   0.75302  0.25820  0.10195  1.19243  0.005624  0.001882  0.004636     2.988
   0.76841  0.24291  0.10027  1.20203  0.005102  0.001781  0.006185     2.864
   0.78386  0.22758  0.09831  1.21035  0.004695  0.001687  0.007558     2.783
   0.79934  0.21226  0.09610  1.21780  0.004327  0.001596  0.009037     2.712
   0.81467  0.19713  0.09366  1.22378  0.004009  0.001510  0.010499     2.655
   0.82983  0.18221  0.09095  1.22814  0.003733  0.001429  0.011913     2.611
   0.84493  0.16741  0.08797  1.23053  0.003508  0.001355  0.013023     2.589
   0.85995  0.15275  0.08473  1.23200  0.003289  0.001280  0.014223     2.569
   0.87475  0.13836  0.08125  1.23256  0.003064  0.001205  0.015717     2.544
   0.88915  0.12444  0.07757  1.23159  0.002835  0.001130  0.017616     2.509
   0.90314  0.11101  0.07364  1.22741  0.002653  0.001062  0.018982     2.498
   0.91683  0.09797  0.06946  1.22151  0.002495  0.000995  0.019915     2.506
   0.92993  0.08560  0.06517  1.21612  0.002281  0.000921  0.022393     2.476
   0.94206  0.07425  0.06087  1.20699  0.002073  0.000852  0.025572     2.433
   0.95332  0.06387  0.05649  1.19174  0.001939  0.000796  0.026904     2.436
   0.96371  0.05444  0.05215  1.17612  0.001817  0.000740  0.027770     2.456
   0.97301  0.04611  0.04801  1.16225  0.001663  0.000679  0.030124     2.451
   0.98119  0.03891  0.04412  1.14651  0.001497  0.000619  0.034202     2.417
   0.98837  0.03273  0.04046  1.12484  0.001365  0.000569  0.037556     2.397
   0.99470  0.02743  0.03701  1.09918  0.001257  0.000526  0.040064     2.391
   1.00030  0.02288  0.03375  1.07082  0.001144  0.000483  0.043915     2.367
   1.00527  0.01898  0.03066  1.03688  0.001056  0.000448  0.046462     2.359
   1.00973  0.01561  0.02774  0.99960  0.000972  0.000414  0.048994     2.351
   1.01375  0.01272  0.02495  0.95676  0.000883  0.000382  0.053456     2.315
   1.01739  0.01024  0.02228  0.90497  0.000827  0.000357  0.053939     2.315
   1.02073  0.00811  0.01971  0.84962  0.000765  0.000332  0.055468     2.302
   1.02380  0.00630  0.01724  0.78649  0.000709  0.000310  0.056339     2.284
   1.02664  0.00476  0.01485  0.71641  0.000666  0.000291  0.054488     2.286
   1.02926  0.00350  0.01255  0.63870  0.000615  0.000274  0.054396     2.250
   1.03171  0.00246  0.01033  0.55196  0.000595  0.000263  0.048029     2.262
   1.03400  0.00163  0.00819  0.46302  0.000561  0.000250  0.043491     2.244
   1.03618  0.00098  0.00612  0.36704  0.000540  0.000240  0.035713     2.247
   1.03826  0.00048  0.00410  0.26660  0.000507  0.000225  0.027567     2.249
   1.04024  0.00015  0.00214  0.15346  0.000465  0.000208  0.017505     2.236
   1.04215  0.00001  0.00024  0.02201  0.000428  0.000192  0.002748     2.230
   1.04400  0.00012 -0.00161 -0.12046  0.000428  0.000192  0.015022     2.230
   1.04587  0.00052 -0.00343 -0.27006  0.000414  0.000186  0.034962     2.223
   1.04780  0.00123 -0.00524 -0.41416  0.000441  0.000195  0.048977     2.255
   1.04986  0.00223 -0.00703 -0.53703  0.000483  0.000213  0.057492     2.264
   1.05205  0.00354 -0.00879 -0.64726  0.000518  0.000229  0.064662     2.262
   1.05438  0.00514 -0.01048 -0.72597  0.000608  0.000260  0.057529     2.339
   1.05689  0.00705 -0.01212 -0.78836  0.000668  0.000289  0.058347     2.312
   1.05960  0.00924 -0.01371 -0.83049  0.000787  0.000329  0.048304     2.391
   1.06254  0.01171 -0.01530 -0.86524  0.000862  0.000365  0.047239     2.364
   1.06576  0.01450 -0.01689 -0.89863  0.000938  0.000397  0.045217     2.361
   1.06931  0.01766 -0.01852 -0.92515  0.001043  0.000436  0.040554     2.393
   1.07328  0.02125 -0.02021 -0.95144  0.001117  0.000470  0.039615     2.375
   1.07773  0.02534 -0.02197 -0.97676  0.001206  0.000507  0.037540     2.379
   1.08275  0.03002 -0.02380 -0.99974  0.001306  0.000546  0.035067     2.391
   1.08845  0.03539 -0.02569 -1.02204  0.001403  0.000587  0.033392     2.391
   1.09493  0.04158 -0.02763 -1.04233  0.001520  0.000632  0.031031     2.404
   1.10237  0.04875 -0.02960 -1.05879  0.001667  0.000686  0.027990     2.430
   1.11095  0.05710 -0.03158 -1.07005  0.001854  0.000751  0.024443     2.468
   1.12083  0.06678 -0.03358 -1.07797  0.002053  0.000824  0.021676     2.492
   1.13204  0.07781 -0.03556 -1.08501  0.002242  0.000898  0.019911     2.496
   1.14448  0.09010 -0.03747 -1.09050  0.002449  0.000977  0.018102     2.507
   1.15809  0.10359 -0.03926 -1.09420  0.002672  0.001059  0.016368     2.522
   1.17266  0.11806 -0.04096 -1.09756  0.002877  0.001140  0.015231     2.524
   1.18781  0.13314 -0.04249 -1.10197  0.003040  0.001212  0.014721     2.508
   1.20335  0.14862 -0.04385 -1.10629  0.003208  0.001282  0.014094     2.502
   1.21923  0.16445 -0.04503 -1.10915  0.003407  0.001355  0.013130     2.514
   1.23540  0.18059 -0.04604 -1.11179  0.003584  0.001424  0.012471     2.517
   1.25175  0.19691 -0.04691 -1.11461  0.003739  0.001488  0.012044     2.513
   1.26813  0.21328 -0.04763 -1.11743  0.003885  0.001549  0.011674     2.508
   1.28457  0.22971 -0.04819 -1.11998  0.004032  0.001608  0.011282     2.508
   1.30115  0.24629 -0.04860 -1.12173  0.004200  0.001669  0.010745     2.517
   1.31783  0.26296 -0.04890 -1.12368  0.004342  0.001726  0.010422     2.516
   1.33448  0.27961 -0.04908 -1.12590  0.004462  0.001778  0.010228     2.510
   1.35110  0.29624 -0.04912 -1.12761  0.004602  0.001832  0.009903     2.512
   1.36778  0.31291 -0.04903 -1.12902  0.004744  0.001885  0.009572     2.517
   1.38450  0.32963 -0.04882 -1.13025  0.004884  0.001937  0.009270     2.521
   1.40120  0.34633 -0.04849 -1.13133  0.005020  0.001989  0.008993     2.524
   1.41786  0.36298 -0.04803 -1.13213  0.005159  0.002040  0.008705     2.530
   1.43449  0.37961 -0.04745 -1.13244  0.005314  0.002092  0.008359     2.540
   1.45114  0.39623 -0.04673 -1.13243  0.005474  0.002146  0.008015     2.551
   1.46777  0.41285 -0.04588 -1.13178  0.005658  0.002202  0.007595     2.569
   1.48439  0.42943 -0.04489 -1.13084  0.005841  0.002258  0.007209     2.586
   1.50097  0.44597 -0.04378 -1.12925  0.006055  0.002319  0.006751     2.611
   1.51751  0.46247 -0.04253 -1.12711  0.006289  0.002382  0.006267     2.641
   1.53401  0.47892 -0.04112 -1.12418  0.006569  0.002450  0.005698     2.682
   1.55050  0.49532 -0.03957 -1.12052  0.006899  0.002523  0.005069     2.734
   1.56702  0.51176 -0.03785 -1.11603  0.007299  0.002603  0.004360     2.804
   1.58368  0.52831 -0.03597 -1.11099  0.007762  0.002688  0.003636     2.887
   1.60055  0.54506 -0.03395 -1.10560  0.008283  0.002776  0.002936     2.984
   1.61761  0.56199 -0.03181 -1.10023  0.008825  0.002864  0.002334     3.082
   1.63483  0.57906 -0.02959 -1.09496  0.009390  0.002950  0.001813     3.183
   1.65218  0.59626 -0.02732 -1.08990  0.009955  0.003034  0.001387     3.281
   1.66962  0.61355 -0.02500 -1.08508  0.010515  0.003116  0.001042     3.375
   1.68712  0.63090 -0.02268 -1.08052  0.011055  0.003194  0.000771     3.461
   1.70462  0.64824 -0.02037 -1.07624  0.011558  0.003270  0.000570     3.535
   1.72205  0.66552 -0.01809 -1.07219  0.012033  0.003343  0.000414     3.600
   1.73939  0.68272 -0.01585 -1.06837  0.012471  0.003413  0.000298     3.653
   1.75663  0.69982 -0.01367 -1.06476  0.012856  0.003482  0.000221     3.693
   1.77378  0.71684 -0.01156 -1.06133  0.013184  0.003548  0.000177     3.716
   1.79085  0.73379 -0.00953 -1.05808  0.013449  0.003612  0.000161     3.724
   1.80784  0.75067 -0.00760 -1.05498  0.013646  0.003674  0.000173     3.714
   1.82474  0.76746 -0.00576 -1.05204  0.013774  0.003735  0.000211     3.688
   1.84154  0.78418 -0.00404 -1.04927  0.013826  0.003793  0.000277     3.645
   1.85823  0.80079 -0.00245 -1.04669  0.013795  0.003848  0.000377     3.585
   1.87481  0.81731 -0.00100 -1.04434  0.013680  0.003900  0.000515     3.508
   1.89126  0.83371  0.00030 -1.04229  0.013470  0.003946  0.000704     3.413
   1.90759  0.85000  0.00143 -1.04067  0.013164  0.003986  0.000953     3.303
   1.92381  0.86619  0.00238 -1.03964  0.012761  0.004015  0.001277     3.179
   1.93987  0.88223  0.00314 -1.03941  0.012269  0.004030  0.001690     3.044
   1.95573  0.89808  0.00370 -1.04029  0.011687  0.004027  0.002214     2.902
   1.97131  0.91366  0.00404 -1.04270  0.011019  0.004001  0.002878     2.754
   1.98653  0.92887  0.00415 -1.04723  0.010260  0.003943  0.003734     2.602
   2.00124  0.94358  0.00401 -1.05460  0.009422  0.003848  0.004838     2.448
   2.01526  0.95760  0.00361 -1.06569  0.008521  0.003710  0.006276     2.297
   2.02837  0.97069  0.00296 -1.08185  0.007562  0.003521  0.008206     2.147
   2.04040  0.98268  0.00205 -1.10484  0.006563  0.003278  0.010867     2.002
   2.05125  0.99348  0.00090 -1.13821  0.005517  0.002969  0.014817     1.858
   2.05783  1.00000  0.00000 -1.12672  0.006099  0.003124  0.012388     1.952
   2.05783  1.00010 -0.00002  1.12672  0.168524  0.005590  0.000000    30.149
   2.06446  1.00660 -0.00132  1.12375  0.164001  0.006060  0.000000    27.064
   2.07221  1.01424 -0.00259  1.12038  0.162026  0.006587  0.000000    24.597
   2.08127  1.02320 -0.00391  1.11637  0.160068  0.007215  0.000000    22.184
   2.09186  1.03370 -0.00530  1.11157  0.157979  0.007967  0.000000    19.830
   2.10423  1.04599 -0.00677  1.10583  0.155601  0.008867  0.000000    17.548
   2.11869  1.06036 -0.00832  1.09896  0.152802  0.009949  0.000000    15.358
   2.13560  1.07719 -0.00996  1.09070  0.149442  0.011252  0.000000    13.282
   2.15535  1.09687 -0.01167  1.08083  0.145356  0.012815  0.000000    11.343
   2.17845  1.11990 -0.01345  1.06904  0.140346  0.014690  0.000000     9.554
   2.20544  1.14682 -0.01528  1.05468  0.134206  0.016983  0.000000     7.902
   2.23698  1.17832 -0.01713  1.03701  0.126684  0.019822  0.000000     6.391
   2.27386  1.21514 -0.01897  1.01476  0.117544  0.023426  0.000000     5.018
   2.31695  1.25820 -0.02076  0.98503  0.106701  0.028328  0.000000     3.767
   2.36732  1.30854 -0.02242  0.95492  0.093925  0.033383  0.000000     2.814
   2.42619  1.36740 -0.02388  0.93582  0.079963  0.036560  0.000000     2.187
   2.49501  1.43620 -0.02504  0.92941  0.066621  0.037574  0.000000     1.773
   2.57543  1.51662 -0.02578  0.93393  0.055506  0.036916  0.000000     1.504
   2.66944  1.61063 -0.02593  0.94445  0.047254  0.035531  0.000000     1.330
   2.77931  1.72050 -0.02533  0.95615  0.041545  0.034127  0.000000     1.217
   2.90773  1.84890 -0.02374  0.96656  0.037702  0.032972  0.000000     1.143
   3.05782  1.99897 -0.02090  0.98145  0.034358  0.031438  0.000000     1.093
