#    s        x        y     Ue/Vinf    Dstar     Theta      Cf       H
   0.00000  1.00000  0.00000  1.11275  0.148875  0.002579 -0.000272    57.716
   0.00668  0.99360  0.00192  1.11261  0.145518  0.002601 -0.000793    55.955
   0.01807  0.98272  0.00530  1.11257  0.142177  0.002610 -0.000790    54.478
   0.03106  0.97032  0.00914  1.11253  0.138490  0.002619 -0.000787    52.874
   0.04516  0.95680  0.01317  1.11249  0.134669  0.002628 -0.000785    51.247
   0.06006  0.94246  0.01720  1.11247  0.130829  0.002635 -0.000783    49.648
   0.07565  0.92739  0.02118  1.11246  0.127002  0.002641 -0.000782    48.088
   0.09186  0.91167  0.02516  1.11246  0.123144  0.002646 -0.000781    46.536
   0.10852  0.89549  0.02915  1.11246  0.119213  0.002652 -0.000779    44.961
   0.12544  0.87905  0.03313  1.11246  0.115224  0.002657 -0.000778    43.361
   0.14250  0.86245  0.03708  1.11245  0.111192  0.002664 -0.000777    41.742
   0.15964  0.84577  0.04099  1.11243  0.107128  0.002671 -0.000775    40.108
   0.17681  0.82904  0.04484  1.11241  0.103036  0.002679 -0.000773    38.464
   0.19398  0.81229  0.04864  1.11237  0.098927  0.002687 -0.000771    36.813
   0.21115  0.79553  0.05238  1.11233  0.094805  0.002696 -0.000769    35.160
   0.22833  0.77875  0.05606  1.11228  0.090666  0.002706 -0.000767    33.504
   0.24546  0.76200  0.05967  1.11222  0.086516  0.002717 -0.000765    31.848
   0.26249  0.74535  0.06319  1.11215  0.082386  0.002727 -0.000763    30.208
   0.27941  0.72877  0.06660  1.11208  0.078301  0.002738 -0.000761    28.596
   0.29629  0.71222  0.06990  1.11201  0.074261  0.002749 -0.000759    27.015
   0.31313  0.69568  0.07308  1.11193  0.070263  0.002759 -0.000757    25.463
   0.32994  0.67915  0.07616  1.11185  0.066326  0.002769 -0.000756    23.949
   0.34670  0.66266  0.07911  1.11178  0.062441  0.002779 -0.000755    22.468
   0.36339  0.64620  0.08193  1.11172  0.058639  0.002788 -0.000754    21.034
   0.38005  0.62976  0.08462  1.11168  0.054913  0.002796 -0.000754    19.643
   0.39672  0.61329  0.08718  1.11165  0.051269  0.002802 -0.000755    18.298
   0.41338  0.59681  0.08962  1.11165  0.047702  0.002807 -0.000756    16.994
   0.42997  0.58038  0.09191  1.11169  0.044223  0.002810 -0.000759    15.736
   0.44649  0.56400  0.09406  1.11178  0.040865  0.002811 -0.000762    14.535
   0.46301  0.54760  0.09605  1.11194  0.037612  0.002810 -0.000767    13.385
   0.47954  0.53117  0.09790  1.11220  0.034470  0.002806 -0.000774    12.287
   0.49603  0.51477  0.09961  1.11258  0.031430  0.002798 -0.000784    11.234
   0.51242  0.49845  0.10115  1.11311  0.028530  0.002786 -0.000796    10.241
   0.52875  0.48218  0.10252  1.11386  0.025787  0.002769 -0.000812     9.312
   0.54509  0.46588  0.10371  1.11489  0.023191  0.002747 -0.000834     8.443
   0.56144  0.44957  0.10475  1.11627  0.020732  0.002718 -0.000863     7.627
   0.57774  0.43329  0.10561  1.11812  0.018433  0.002683 -0.000903     6.870
   0.59394  0.41711  0.10630  1.12055  0.016313  0.002640 -0.000956     6.180
   0.61007  0.40098  0.10679  1.12374  0.014379  0.002588 -0.001013     5.557
   0.62617  0.38489  0.10708  1.12787  0.012638  0.002526 -0.001020     5.004
   0.64227  0.36879  0.10718  1.13310  0.011079  0.002454 -0.000883     4.515
   0.65836  0.35270  0.10708  1.13946  0.009703  0.002373 -0.000476     4.089
   0.67432  0.33674  0.10680  1.14690  0.008500  0.002285  0.000284     3.721
   0.69010  0.32097  0.10629  1.15551  0.007492  0.002187  0.001353     3.426
   0.70583  0.30526  0.10554  1.16492  0.006686  0.002083  0.002571     3.209
   0.72167  0.28945  0.10454  1.17460  0.006029  0.001979  0.003870     3.047
   0.73747  0.27369  0.10335  1.18429  0.005446  0.001874  0.005376     2.906
   0.75302  0.25820  0.10195  1.19334  0.004935  0.001773  0.007081     2.784
   0.76841  0.24291  0.10027  1.20035  0.004558  0.001683  0.008491     2.708
   0.78386  0.22758  0.09831  1.20559  0.004262  0.001601  0.009650     2.662
   0.79934  0.21226  0.09610  1.20988  0.003982  0.001521  0.010908     2.618
   0.81467  0.19713  0.09366  1.21302  0.003711  0.001442  0.012370     2.572
   0.82983  0.18221  0.09095  1.21374  0.003500  0.001372  0.013440     2.551
   0.84493  0.16741  0.08797  1.21318  0.003306  0.001304  0.014459     2.536
   0.85995  0.15275  0.08473  1.21162  0.003112  0.001234  0.015577     2.522
   0.87475  0.13836  0.08125  1.20894  0.002916  0.001164  0.016890     2.505
   0.88915  0.12444  0.07757  1.20489  0.002706  0.001093  0.018718     2.475
   0.90314  0.11101  0.07364  1.19752  0.002531  0.001028  0.020165     2.462
   0.91683  0.09797  0.06946  1.18775  0.002388  0.000966  0.020969     2.473
   0.92993  0.08560  0.06517  1.17835  0.002197  0.000896  0.023089     2.453
   0.94206  0.07425  0.06087  1.16567  0.001990  0.000828  0.026472     2.405
   0.95332  0.06387  0.05649  1.14569  0.001869  0.000775  0.027510     2.412
   0.96371  0.05444  0.05215  1.12571  0.001748  0.000720  0.028452     2.427
   0.97301  0.04611  0.04801  1.10683  0.001604  0.000662  0.030619     2.423
   0.98119  0.03891  0.04412  1.08583  0.001448  0.000605  0.034268     2.394
   0.98837  0.03273  0.04046  1.05934  0.001329  0.000557  0.036729     2.385
   0.99470  0.02743  0.03701  1.02968  0.001210  0.000512  0.040111     2.362
   1.00030  0.02288  0.03375  0.99490  0.001117  0.000474  0.042146     2.358
   1.00527  0.01898  0.03066  0.95678  0.001019  0.000436  0.045383     2.336
   1.00973  0.01561  0.02774  0.91231  0.000942  0.000405  0.047307     2.326
   1.01375  0.01272  0.02495  0.86273  0.000868  0.000376  0.049325     2.309
   1.01739  0.01024  0.02228  0.80728  0.000807  0.000350  0.049714     2.306
   1.02073  0.00811  0.01971  0.74618  0.000743  0.000325  0.050876     2.286
   1.02380  0.00630  0.01724  0.67480  0.000691  0.000306  0.050624     2.261
   1.02664  0.00476  0.01485  0.60006  0.000663  0.000288  0.045152     2.303
   1.02926  0.00350  0.01255  0.51798  0.000591  0.000266  0.047175     2.219
   1.03171  0.00246  0.01033  0.42429  0.000592  0.000259  0.036327     2.284
   1.03400  0.00163  0.00819  0.32933  0.000537  0.000244  0.033511     2.202
   1.03618  0.00098  0.00612  0.22654  0.000559  0.000247  0.021002     2.260
   1.03826  0.00048  0.00410  0.12738  0.000497  0.000223  0.013672     2.228
   1.04024  0.00015  0.00214  0.00207  0.000423  0.000190  0.000261     2.230
   1.04215  0.00001  0.00024 -0.14708  0.000424  0.000190  0.018518     2.230
   1.04400  0.00012 -0.00161 -0.28863  0.000431  0.000193  0.035573     2.234
   1.04587  0.00052 -0.00343 -0.44079  0.000411  0.000186  0.058202     2.211
   1.04780  0.00123 -0.00524 -0.57547  0.000457  0.000200  0.063812     2.287
   1.04986  0.00223 -0.00703 -0.69521  0.000477  0.000213  0.076745     2.243
   1.05205  0.00354 -0.00879 -0.79487  0.000539  0.000233  0.073117     2.309
   1.05438  0.00514 -0.01048 -0.86816  0.000605  0.000261  0.070205     2.323
   1.05689  0.00705 -0.01212 -0.91641  0.000709  0.000297  0.059578     2.385
   1.05960  0.00924 -0.01371 -0.94844  0.000811  0.000337  0.052819     2.406
   1.06254  0.01171 -0.01530 -0.97678  0.000892  0.000373  0.050080     2.393
   1.06576  0.01450 -0.01689 -1.00012  0.000990  0.000410  0.045327     2.412
   1.06931  0.01766 -0.01852 -1.02040  0.001083  0.000448  0.042046     2.417
   1.07328  0.02125 -0.02021 -1.03929  0.001176  0.000487  0.039421     2.418
   1.07773  0.02534 -0.02197 -1.05898  0.001258  0.000523  0.038005     2.406
   1.08275  0.03002 -0.02380 -1.07680  0.001363  0.000564  0.035254     2.418
   1.08845  0.03539 -0.02569 -1.09446  0.001461  0.000605  0.033519     2.415
   1.09493  0.04158 -0.02763 -1.11010  0.001583  0.000651  0.030915     2.430
   1.10237  0.04875 -0.02960 -1.12180  0.001739  0.000707  0.027562     2.460
   1.11095  0.05710 -0.03158 -1.12835  0.001939  0.000774  0.023754     2.503
   1.12083  0.06678 -0.03358 -1.13251  0.002140  0.000848  0.021121     2.524
   1.13204  0.07781 -0.03556 -1.13527  0.002347  0.000925  0.019035     2.537
   1.14448  0.09010 -0.03747 -1.13649  0.002571  0.001007  0.017096     2.552
   1.15809  0.10359 -0.03926 -1.13674  0.002801  0.001092  0.015497     2.564
   1.17266  0.11806 -0.04096 -1.13735  0.003006  0.001174  0.014504     2.561
   1.18781  0.13314 -0.04249 -1.13903  0.003179  0.001249  0.013964     2.546
   1.20335  0.14862 -0.04385 -1.14038  0.003368  0.001323  0.013200     2.545
   1.21923  0.16445 -0.04503 -1.14131  0.003560  0.001396  0.012444     2.549
   1.23540  0.18059 -0.04604 -1.14190  0.003750  0.001468  0.011760     2.554
   1.25175  0.19691 -0.04691 -1.14308  0.003905  0.001534  0.011397     2.547
   1.26813  0.21328 -0.04763 -1.14435  0.004056  0.001596  0.011051     2.541
   1.28457  0.22971 -0.04819 -1.14516  0.004221  0.001659  0.010586     2.545
   1.30115  0.24629 -0.04860 -1.14572  0.004386  0.001720  0.010142     2.549
   1.31783  0.26296 -0.04890 -1.14628  0.004539  0.001780  0.009789     2.551
   1.33448  0.27961 -0.04908 -1.14730  0.004664  0.001834  0.009612     2.543
   1.35110  0.29624 -0.04912 -1.14786  0.004811  0.001889  0.009291     2.546
   1.36778  0.31291 -0.04903 -1.14805  0.004967  0.001946  0.008933     2.553
   1.38450  0.32963 -0.04882 -1.14825  0.005113  0.002000  0.008647     2.557
   1.40120  0.34633 -0.04849 -1.14833  0.005256  0.002053  0.008378     2.560
   1.41786  0.36298 -0.04803 -1.14821  0.005404  0.002106  0.008097     2.566
   1.43449  0.37961 -0.04745 -1.14750  0.005577  0.002162  0.007720     2.580
   1.45114  0.39623 -0.04673 -1.14651  0.005755  0.002218  0.007356     2.594
   1.46777  0.41285 -0.04588 -1.14499  0.005953  0.002277  0.006939     2.614
   1.48439  0.42943 -0.04489 -1.14314  0.006161  0.002337  0.006529     2.636
   1.50097  0.44597 -0.04378 -1.14058  0.006408  0.002402  0.006029     2.668
   1.51751  0.46247 -0.04253 -1.13767  0.006667  0.002468  0.005548     2.701
   1.53401  0.47892 -0.04112 -1.13397  0.006987  0.002540  0.004959     2.751
   1.55050  0.49532 -0.03957 -1.12961  0.007365  0.002617  0.004314     2.814
   1.56702  0.51176 -0.03785 -1.12463  0.007816  0.002700  0.003617     2.895
   1.58368  0.52831 -0.03597 -1.11921  0.008346  0.002787  0.002900     2.994
   1.60055  0.54506 -0.03395 -1.11364  0.008937  0.002876  0.002228     3.108
   1.61761  0.56199 -0.03181 -1.10821  0.009560  0.002963  0.001651     3.227
   1.63483  0.57906 -0.02959 -1.10299  0.010214  0.003048  0.001159     3.351
   1.65218  0.59626 -0.02732 -1.09807  0.010872  0.003129  0.000764     3.474
   1.66962  0.61355 -0.02500 -1.09345  0.011527  0.003208  0.000453     3.594
   1.68712  0.63090 -0.02268 -1.08913  0.012163  0.003282  0.000216     3.705
   1.70462  0.64824 -0.02037 -1.08509  0.012767  0.003354  0.000039     3.806
   1.72205  0.66552 -0.01809 -1.08130  0.013334  0.003424 -0.000089     3.895
   1.73939  0.68272 -0.01585 -1.07773  0.013861  0.003490 -0.000182     3.971
   1.75663  0.69982 -0.01367 -1.07435  0.014330  0.003555 -0.000242     4.031
   1.77378  0.71684 -0.01156 -1.07114  0.014736  0.003618 -0.000278     4.073
   1.79085  0.73379 -0.00953 -1.06806  0.015069  0.003680 -0.000293     4.095
   1.80784  0.75067 -0.00760 -1.06511  0.015327  0.003740 -0.000290     4.098
   1.82474  0.76746 -0.00576 -1.06226  0.015503  0.003800 -0.000270     4.080
   1.84154  0.78418 -0.00404 -1.05952  0.015591  0.003858 -0.000230     4.041
   1.85823  0.80079 -0.00245 -1.05687  0.015584  0.003915 -0.000169     3.981
   1.87481  0.81731 -0.00100 -1.05433  0.015477  0.003970 -0.000079     3.898
   1.89126  0.83371  0.00030 -1.05194  0.015259  0.004023  0.000049     3.793
   1.90759  0.85000  0.00143 -1.04975  0.014929  0.004072  0.000226     3.666
   1.92381  0.86619  0.00238 -1.04790  0.014482  0.004115  0.000469     3.519
   1.93987  0.88223  0.00314 -1.04656  0.013928  0.004149  0.000794     3.357
   1.95573  0.89808  0.00370 -1.04604  0.013266  0.004167  0.001224     3.184
   1.97131  0.91366  0.00404 -1.04674  0.012500  0.004163  0.001788     3.002
   1.98653  0.92887  0.00415 -1.04924  0.011629  0.004130  0.002530     2.816
   2.00124  0.94358  0.00401 -1.05427  0.010668  0.004057  0.003502     2.629
   2.01526  0.95760  0.00361 -1.06273  0.009636  0.003938  0.004776     2.447
   2.02837  0.97069  0.00296 -1.07581  0.008548  0.003765  0.006472     2.270
   2.04040  0.98268  0.00205 -1.09501  0.007431  0.003534  0.008774     2.103
   2.05125  0.99348  0.00090 -1.12282  0.006292  0.003238  0.012052     1.943
   2.05783  1.00000  0.00000 -1.11275  0.006892  0.003386  0.010154     2.035
   2.05783  1.00010 -0.00002  1.11275  0.155767  0.005966  0.000000    26.110
   2.06446  1.00660 -0.00133  1.10977  0.151012  0.006410  0.000000    23.559
   2.07221  1.01424 -0.00261  1.10644  0.148868  0.006902  0.000000    21.569
   2.08127  1.02320 -0.00394  1.10245  0.146731  0.007488  0.000000    19.595
   2.09186  1.03369 -0.00536  1.09766  0.144453  0.008190  0.000000    17.637
   2.10423  1.04597 -0.00686  1.09191  0.141870  0.009035  0.000000    15.703
   2.11869  1.06035 -0.00846  1.08498  0.138850  0.010052  0.000000    13.813
   2.13560  1.07716 -0.01017  1.07661  0.135252  0.011282  0.000000    11.988
   2.15535  1.09684 -0.01197  1.06650  0.130913  0.012768  0.000000    10.253
   2.17845  1.11985 -0.01386  1.05435  0.125637  0.014557  0.000000     8.631
   2.20544  1.14677 -0.01584  1.03940  0.119226  0.016760  0.000000     7.114
   2.23698  1.17825 -0.01788  1.02072  0.111451  0.019521  0.000000     5.709
   2.27386  1.21506 -0.01997  0.99654  0.102141  0.023123  0.000000     4.417
   2.31695  1.25811 -0.02206  0.96562  0.091223  0.027804  0.000000     3.281
   2.36732  1.30844 -0.02411  0.94179  0.078703  0.031419  0.000000     2.505
   2.42619  1.36728 -0.02606  0.92933  0.065930  0.033245  0.000000     1.983
   2.49501  1.43607 -0.02783  0.92909  0.054557  0.033278  0.000000     1.639
   2.57543  1.51648 -0.02933  0.93755  0.045679  0.032231  0.000000     1.417
   2.66944  1.61048 -0.03045  0.94938  0.039384  0.030907  0.000000     1.274
   2.77931  1.72035 -0.03102  0.96076  0.035129  0.029741  0.000000     1.181
   2.90773  1.84877 -0.03089  0.97026  0.032290  0.028834  0.000000     1.120
   3.05782  1.99886 -0.02983  0.98254  0.029904  0.027732  0.000000     1.078
