#    s        x        y     Ue/Vinf    Dstar     Theta      Cf       H
   0.00000  1.00000  0.00000  1.12479  0.160425  0.002481 -0.000278    64.651
   0.00668  0.99360  0.00192  1.12467  0.157070  0.002501 -0.000832    62.795
   0.01807  0.98272  0.00530  1.12464  0.153657  0.002509 -0.000830    61.238
   0.03106  0.97032  0.00914  1.12461  0.149875  0.002517 -0.000827    59.536
   0.04516  0.95680  0.01317  1.12459  0.145941  0.002525 -0.000825    57.803
   0.06006  0.94246  0.01720  1.12458  0.141974  0.002531 -0.000823    56.095
   0.07565  0.92739  0.02118  1.12458  0.138009  0.002536 -0.000822    54.425
   0.09186  0.91167  0.02516  1.12459  0.134002  0.002540 -0.000821    52.759
   0.10852  0.89549  0.02915  1.12460  0.129913  0.002544 -0.000820    51.060
   0.12544  0.87905  0.03313  1.12460  0.125759  0.002549 -0.000818    49.330
   0.14250  0.86245  0.03708  1.12460  0.121555  0.002555 -0.000817    47.573
   0.15964  0.84577  0.04099  1.12459  0.117313  0.002562 -0.000815    45.795
   0.17681  0.82904  0.04484  1.12457  0.113038  0.002569 -0.000813    43.999
   0.19398  0.81229  0.04864  1.12454  0.108740  0.002577 -0.000811    42.191
   0.21115  0.79553  0.05238  1.12451  0.104425  0.002586 -0.000809    40.375
   0.22833  0.77875  0.05606  1.12446  0.100086  0.002596 -0.000807    38.551
   0.24546  0.76200  0.05967  1.12441  0.095732  0.002607 -0.000804    36.723
   0.26249  0.74535  0.06319  1.12434  0.091393  0.002618 -0.000801    34.908
   0.27941  0.72877  0.06660  1.12427  0.087094  0.002630 -0.000798    33.120
   0.29629  0.71222  0.06990  1.12419  0.082834  0.002641 -0.000796    31.361
   0.31313  0.69568  0.07308  1.12410  0.078614  0.002653 -0.000793    29.632
   0.32994  0.67915  0.07616  1.12402  0.074445  0.002665 -0.000791    27.940
   0.34670  0.66266  0.07911  1.12393  0.070328  0.002676 -0.000789    26.283
   0.36339  0.64620  0.08193  1.12384  0.066279  0.002687 -0.000787    24.669
   0.38005  0.62976  0.08462  1.12376  0.062311  0.002697 -0.000786    23.105
   0.39672  0.61329  0.08718  1.12369  0.058414  0.002706 -0.000785    21.585
   0.41338  0.59681  0.08962  1.12364  0.054586  0.002715 -0.000785    20.109
   0.42997  0.58038  0.09191  1.12360  0.050840  0.002722 -0.000785    18.679
   0.44649  0.56400  0.09406  1.12359  0.047209  0.002727 -0.000786    17.309
   0.46301  0.54760  0.09605  1.12362  0.043679  0.002731 -0.000788    15.993
   0.47954  0.53117  0.09790  1.12371  0.040247  0.002733 -0.000792    14.729
   0.49603  0.51477  0.09961  1.12386  0.036911  0.002732 -0.000797    13.513
   0.51242  0.49845  0.10115  1.12412  0.033707  0.002728 -0.000805    12.358
   0.52875  0.48218  0.10252  1.12451  0.030658  0.002720 -0.000815    11.273
   0.54509  0.46588  0.10371  1.12508  0.027745  0.002707 -0.000828    10.248
   0.56144  0.44957  0.10475  1.12588  0.024955  0.002690 -0.000846     9.276
   0.57774  0.43329  0.10561  1.12698  0.022318  0.002667 -0.000870     8.367
   0.59394  0.41711  0.10630  1.12848  0.019852  0.002638 -0.000902     7.526
   0.61007  0.40098  0.10679  1.13050  0.017567  0.002601 -0.000947     6.754
   0.62617  0.38489  0.10708  1.13320  0.015471  0.002555 -0.001007     6.054
   0.64227  0.36879  0.10718  1.13677  0.013558  0.002500 -0.001061     5.422
   0.65836  0.35270  0.10708  1.14143  0.011830  0.002435 -0.001042     4.858
   0.67432  0.33674  0.10680  1.14731  0.010295  0.002359 -0.000811     4.363
   0.69010  0.32097  0.10629  1.15429  0.008962  0.002276 -0.000231     3.937
   0.70583  0.30526  0.10554  1.16254  0.007867  0.002184  0.000675     3.603
   0.72167  0.28945  0.10454  1.17201  0.006965  0.002082  0.001830     3.346
   0.73747  0.27369  0.10335  1.18240  0.006172  0.001974  0.003309     3.127
   0.75302  0.25820  0.10195  1.19284  0.005510  0.001866  0.004991     2.953
   0.76841  0.24291  0.10027  1.20223  0.005003  0.001765  0.006581     2.834
   0.78386  0.22758  0.09831  1.20999  0.004626  0.001674  0.007864     2.764
   0.79934  0.21226  0.09610  1.21708  0.004268  0.001584  0.009350     2.695
   0.81467  0.19713  0.09366  1.22268  0.003954  0.001499  0.010853     2.638
   0.82983  0.18221  0.09095  1.22625  0.003700  0.001421  0.012112     2.603
   0.84493  0.16741  0.08797  1.22828  0.003480  0.001347  0.013205     2.583
   0.85995  0.15275  0.08473  1.22950  0.003257  0.001273  0.014493     2.559
   0.87475  0.13836  0.08125  1.22939  0.003043  0.001199  0.015885     2.538
   0.88915  0.12444  0.07757  1.22801  0.002816  0.001124  0.017772     2.505
   0.90314  0.11101  0.07364  1.22344  0.002633  0.001057  0.019192     2.492
   0.91683  0.09797  0.06946  1.21691  0.002479  0.000991  0.020073     2.501
   0.92993  0.08560  0.06517  1.21094  0.002272  0.000918  0.022405     2.475
   0.94206  0.07425  0.06087  1.20165  0.002055  0.000848  0.025892     2.425
   0.95332  0.06387  0.05649  1.18523  0.001930  0.000793  0.026972     2.433
   0.96371  0.05444  0.05215  1.16911  0.001810  0.000737  0.027704     2.456
   0.97301  0.04611  0.04801  1.15495  0.001646  0.000675  0.030638     2.439
   0.98119  0.03891  0.04412  1.13738  0.001492  0.000618  0.034147     2.414
   0.98837  0.03273  0.04046  1.11550  0.001372  0.000569  0.036482     2.412
   0.99470  0.02743  0.03701  1.09108  0.001231  0.000521  0.041643     2.365
   1.00030  0.02288  0.03375  1.05883  0.001152  0.000484  0.042614     2.379
   1.00527  0.01898  0.03066  1.02625  0.001045  0.000445  0.046950     2.348
   1.00973  0.01561  0.02774  0.98654  0.000969  0.000413  0.048870     2.344
   1.01375  0.01272  0.02495  0.94289  0.000887  0.000382  0.052106     2.321
   1.01739  0.01024  0.02228  0.89281  0.000827  0.000356  0.052794     2.324
   1.02073  0.00811  0.01971  0.83740  0.000754  0.000329  0.056029     2.291
   1.02380  0.00630  0.01724  0.77079  0.000705  0.000309  0.055734     2.279
   1.02664  0.00476  0.01485  0.69796  0.000664  0.000292  0.054088     2.270
   1.02926  0.00350  0.01255  0.62356  0.000629  0.000273  0.049464     2.302
   1.03171  0.00246  0.01033  0.53773  0.000562  0.000254  0.051984     2.210
   1.03400  0.00163  0.00819  0.43671  0.000581  0.000259  0.039473     2.247
   1.03618  0.00098  0.00612  0.35108  0.000541  0.000236  0.032578     2.296
   1.03826  0.00048  0.00410  0.24490  0.000476  0.000217  0.028253     2.196
   1.04024  0.00015  0.00214  0.12805  0.000524  0.000234  0.012852     2.245
   1.04215  0.00001  0.00024  0.01223  0.000409  0.000183  0.001594     2.230
   1.04400  0.00012 -0.00161 -0.14352  0.000409  0.000183  0.018720     2.230
   1.04587  0.00052 -0.00343 -0.29889  0.000411  0.000184  0.038721     2.231
   1.04780  0.00123 -0.00524 -0.43910  0.000447  0.000198  0.050965     2.260
   1.04986  0.00223 -0.00703 -0.55823  0.000488  0.000216  0.059210     2.263
   1.05205  0.00354 -0.00879 -0.66497  0.000525  0.000232  0.065268     2.267
   1.05438  0.00514 -0.01048 -0.74937  0.000592  0.000256  0.062636     2.310
   1.05689  0.00705 -0.01212 -0.80841  0.000681  0.000290  0.056645     2.349
   1.05960  0.00924 -0.01371 -0.84612  0.000796  0.000332  0.048428     2.396
   1.06254  0.01171 -0.01530 -0.88182  0.000859  0.000365  0.048790     2.354
   1.06576  0.01450 -0.01689 -0.91110  0.000961  0.000402  0.043505     2.389
   1.06931  0.01766 -0.01852 -0.93969  0.001031  0.000435  0.042696     2.369
   1.07328  0.02125 -0.02021 -0.96340  0.001138  0.000474  0.038517     2.398
   1.07773  0.02534 -0.02197 -0.98739  0.001216  0.000510  0.037520     2.383
   1.08275  0.03002 -0.02380 -1.01081  0.001307  0.000548  0.035634     2.385
   1.08845  0.03539 -0.02569 -1.03235  0.001412  0.000589  0.033342     2.396
   1.09493  0.04158 -0.02763 -1.05204  0.001527  0.000635  0.031081     2.407
   1.10237  0.04875 -0.02960 -1.06804  0.001674  0.000688  0.028046     2.432
   1.11095  0.05710 -0.03158 -1.07809  0.001871  0.000755  0.024160     2.478
   1.12083  0.06678 -0.03358 -1.08580  0.002061  0.000827  0.021735     2.493
   1.13204  0.07781 -0.03556 -1.09216  0.002256  0.000902  0.019782     2.502
   1.14448  0.09010 -0.03747 -1.09698  0.002466  0.000981  0.017953     2.514
   1.15809  0.10359 -0.03926 -1.09983  0.002697  0.001065  0.016136     2.532
   1.17266  0.11806 -0.04096 -1.10328  0.002886  0.001144  0.015267     2.523
   1.18781  0.13314 -0.04249 -1.10718  0.003060  0.001218  0.014607     2.513
   1.20335  0.14862 -0.04385 -1.11076  0.003238  0.001289  0.013875     2.512
   1.21923  0.16445 -0.04503 -1.11389  0.003415  0.001359  0.013171     2.513
   1.23540  0.18059 -0.04604 -1.11579  0.003615  0.001431  0.012288     2.526
   1.25175  0.19691 -0.04691 -1.11881  0.003751  0.001493  0.012050     2.513
   1.26813  0.21328 -0.04763 -1.12116  0.003912  0.001556  0.011558     2.514
   1.28457  0.22971 -0.04819 -1.12355  0.004056  0.001615  0.011199     2.512
   1.30115  0.24629 -0.04860 -1.12509  0.004226  0.001676  0.010657     2.521
   1.31783  0.26296 -0.04890 -1.12686  0.004367  0.001733  0.010341     2.520
   1.33448  0.27961 -0.04908 -1.12897  0.004487  0.001785  0.010160     2.513
   1.35110  0.29624 -0.04912 -1.13049  0.004629  0.001839  0.009823     2.517
   1.36778  0.31291 -0.04903 -1.13172  0.004774  0.001893  0.009485     2.522
   1.38450  0.32963 -0.04882 -1.13278  0.004915  0.001946  0.009181     2.526
   1.40120  0.34633 -0.04849 -1.13380  0.005047  0.001997  0.008929     2.528
   1.41786  0.36298 -0.04803 -1.13438  0.005194  0.002049  0.008612     2.535
   1.43449  0.37961 -0.04745 -1.13457  0.005349  0.002102  0.008271     2.545
   1.45114  0.39623 -0.04673 -1.13447  0.005508  0.002155  0.007936     2.556
   1.46777  0.41285 -0.04588 -1.13374  0.005692  0.002211  0.007525     2.574
   1.48439  0.42943 -0.04489 -1.13259  0.005886  0.002269  0.007108     2.594
   1.50097  0.44597 -0.04378 -1.13093  0.006097  0.002329  0.006665     2.618
   1.51751  0.46247 -0.04253 -1.12861  0.006341  0.002393  0.006161     2.649
   1.53401  0.47892 -0.04112 -1.12559  0.006625  0.002462  0.005595     2.691
   1.55050  0.49532 -0.03957 -1.12185  0.006957  0.002536  0.004973     2.744
   1.56702  0.51176 -0.03785 -1.11728  0.007364  0.002616  0.004261     2.815
   1.58368  0.52831 -0.03597 -1.11215  0.007839  0.002702  0.003532     2.902
   1.60055  0.54506 -0.03395 -1.10677  0.008362  0.002789  0.002847     2.998
   1.61761  0.56199 -0.03181 -1.10137  0.008917  0.002877  0.002243     3.099
   1.63483  0.57906 -0.02959 -1.09609  0.009493  0.002963  0.001725     3.203
   1.65218  0.59626 -0.02732 -1.09103  0.010071  0.003047  0.001300     3.305
   1.66962  0.61355 -0.02500 -1.08623  0.010643  0.003129  0.000959     3.402
   1.68712  0.63090 -0.02268 -1.08170  0.011193  0.003207  0.000693     3.490
   1.70462  0.64824 -0.02037 -1.07743  0.011712  0.003282  0.000492     3.568
   1.72205  0.66552 -0.01809 -1.07341  0.012197  0.003355  0.000340     3.636
   1.73939  0.68272 -0.01585 -1.06961  0.012646  0.003425  0.000226     3.692
   1.75663  0.69982 -0.01367 -1.06602  0.013042  0.003493  0.000150     3.734
   1.77378  0.71684 -0.01156 -1.06262  0.013379  0.003558  0.000107     3.760
   1.79085  0.73379 -0.00953 -1.05938  0.013651  0.003622  0.000091     3.769
   1.80784  0.75067 -0.00760 -1.05629  0.013856  0.003685  0.000101     3.760
   1.82474  0.76746 -0.00576 -1.05335  0.013989  0.003745  0.000137     3.735
   1.84154  0.78418 -0.00404 -1.05056  0.014045  0.003803  0.000199     3.693
   1.85823  0.80079 -0.00245 -1.04795  0.014018  0.003859  0.000294     3.632
   1.87481  0.81731 -0.00100 -1.04556  0.013901  0.003911  0.000427     3.554
   1.89126  0.83371  0.00030 -1.04345  0.013690  0.003959  0.000607     3.458
   1.90759  0.85000  0.00143 -1.04174  0.013380  0.004000  0.000848     3.345
   1.92381  0.86619  0.00238 -1.04058  0.012971  0.004031  0.001163     3.218
   1.93987  0.88223  0.00314 -1.04019  0.012471  0.004049  0.001566     3.080
   1.95573  0.89808  0.00370 -1.04089  0.011878  0.004049  0.002079     2.934
   1.97131  0.91366  0.00404 -1.04308  0.011198  0.004025  0.002732     2.782
   1.98653  0.92887  0.00415 -1.04735  0.010425  0.003970  0.003573     2.626
   2.00124  0.94358  0.00401 -1.05442  0.009572  0.003877  0.004662     2.469
   2.01526  0.95760  0.00361 -1.06520  0.008654  0.003740  0.006080     2.314
   2.02837  0.97069  0.00296 -1.08097  0.007679  0.003553  0.007978     2.161
   2.04040  0.98268  0.00205 -1.10349  0.006666  0.003311  0.010593     2.013
   2.05125  0.99348  0.00090 -1.13613  0.005609  0.003003  0.014452     1.868
   2.05783  1.00000  0.00000 -1.12479  0.006194  0.003158  0.012092     1.962
   2.05783  1.00010 -0.00002  1.12479  0.166619  0.005639  0.000000    29.546
   2.06446  1.00660 -0.00132  1.12182  0.162064  0.006105  0.000000    26.544
   2.07221  1.01424 -0.00259  1.11846  0.160065  0.006628  0.000000    24.151
   2.08127  1.02320 -0.00392  1.11444  0.158082  0.007250  0.000000    21.805
   2.09186  1.03370 -0.00531  1.10965  0.155966  0.007994  0.000000    19.510
   2.10423  1.04598 -0.00678  1.10390  0.153559  0.008887  0.000000    17.280
   2.11869  1.06036 -0.00834  1.09701  0.150728  0.009960  0.000000    15.134
   2.13560  1.07719 -0.00999  1.08874  0.147334  0.011252  0.000000    13.095
   2.15535  1.09687 -0.01171  1.07883  0.143211  0.012804  0.000000    11.185
   2.17845  1.11989 -0.01351  1.06699  0.138162  0.014667  0.000000     9.420
   2.20544  1.14682 -0.01536  1.05254  0.131980  0.016947  0.000000     7.788
   2.23698  1.17831 -0.01724  1.03472  0.124418  0.019775  0.000000     6.292
   2.27386  1.21513 -0.01912  1.01223  0.115245  0.023376  0.000000     4.930
   2.31695  1.25819 -0.02094  0.98199  0.104395  0.028303  0.000000     3.688
   2.36732  1.30853 -0.02266  0.95286  0.091626  0.033128  0.000000     2.766
   2.42619  1.36738 -0.02419  0.93469  0.077811  0.036098  0.000000     2.156
   2.49501  1.43618 -0.02544  0.92920  0.064743  0.036949  0.000000     1.752
   2.57543  1.51660 -0.02629  0.93436  0.053960  0.036214  0.000000     1.490
   2.66944  1.61061 -0.02658  0.94514  0.046013  0.034828  0.000000     1.321
   2.77931  1.72048 -0.02614  0.95683  0.040539  0.033457  0.000000     1.212
   2.90773  1.84889 -0.02476  0.96712  0.036859  0.032340  0.000000     1.140
   3.05782  1.99896 -0.02218  0.98160  0.033675  0.030878  0.000000     1.091
