#    s        x        y     Ue/Vinf    Dstar     Theta      Cf       H
   0.00000  1.00000  0.00000  1.11820  0.153897  0.002535 -0.000275    60.697
   0.00668  0.99360  0.00192  1.11806  0.150542  0.002556 -0.000810    58.895
   0.01807  0.98272  0.00530  1.11803  0.147170  0.002565 -0.000807    57.383
   0.03106  0.97032  0.00914  1.11799  0.143443  0.002574 -0.000805    55.735
   0.04516  0.95680  0.01317  1.11797  0.139573  0.002582 -0.000802    54.061
   0.06006  0.94246  0.01720  1.11795  0.135679  0.002589 -0.000801    52.414
   0.07565  0.92739  0.02118  1.11795  0.131792  0.002594 -0.000799    50.806
   0.09186  0.91167  0.02516  1.11795  0.127869  0.002599 -0.000798    49.204
   0.10852  0.89549  0.02915  1.11795  0.123869  0.002604 -0.000797    47.574
   0.12544  0.87905  0.03313  1.11795  0.119808  0.002609 -0.000796    45.917
   0.14250  0.86245  0.03708  1.11794  0.115702  0.002615 -0.000794    44.238
   0.15964  0.84577  0.04099  1.11793  0.111560  0.002622 -0.000793    42.542
   0.17681  0.82904  0.04484  1.11791  0.107388  0.002630 -0.000791    40.831
   0.19398  0.81229  0.04864  1.11788  0.103196  0.002639 -0.000789    39.111
   0.21115  0.79553  0.05238  1.11784  0.098989  0.002648 -0.000787    37.388
   0.22833  0.77875  0.05606  1.11779  0.094763  0.002657 -0.000784    35.659
   0.24546  0.76200  0.05967  1.11773  0.090522  0.002668 -0.000782    33.929
   0.26249  0.74535  0.06319  1.11766  0.086300  0.002679 -0.000780    32.212
   0.27941  0.72877  0.06660  1.11759  0.082121  0.002690 -0.000777    30.525
   0.29629  0.71222  0.06990  1.11751  0.077984  0.002702 -0.000775    28.867
   0.31313  0.69568  0.07308  1.11743  0.073891  0.002713 -0.000773    27.240
   0.32994  0.67915  0.07616  1.11735  0.069850  0.002723 -0.000771    25.648
   0.34670  0.66266  0.07911  1.11727  0.065864  0.002734 -0.000770    24.092
   0.36339  0.64620  0.08193  1.11719  0.061950  0.002744 -0.000768    22.579
   0.38005  0.62976  0.08462  1.11713  0.058120  0.002753 -0.000768    21.115
   0.39672  0.61329  0.08718  1.11708  0.054364  0.002760 -0.000768    19.695
   0.41338  0.59681  0.08962  1.11705  0.050678  0.002767 -0.000768    18.315
   0.42997  0.58038  0.09191  1.11705  0.047086  0.002772 -0.000770    16.986
   0.44649  0.56400  0.09406  1.11709  0.043601  0.002775 -0.000772    15.709
   0.46301  0.54760  0.09605  1.11719  0.040227  0.002776 -0.000776    14.489
   0.47954  0.53117  0.09790  1.11736  0.036957  0.002775 -0.000781    13.319
   0.49603  0.51477  0.09961  1.11763  0.033783  0.002770 -0.000789    12.195
   0.51242  0.49845  0.10115  1.11802  0.030750  0.002762 -0.000798    11.133
   0.52875  0.48218  0.10252  1.11859  0.027872  0.002750 -0.000812    10.137
   0.54509  0.46588  0.10371  1.11940  0.025137  0.002732 -0.000829     9.201
   0.56144  0.44957  0.10475  1.12049  0.022526  0.002709 -0.000853     8.316
   0.57774  0.43329  0.10561  1.12198  0.020081  0.002679 -0.000884     7.496
   0.59394  0.41711  0.10630  1.12395  0.017803  0.002642 -0.000928     6.738
   0.61007  0.40098  0.10679  1.12657  0.015713  0.002597 -0.000985     6.050
   0.62617  0.38489  0.10708  1.13002  0.013814  0.002543 -0.001037     5.433
   0.64227  0.36879  0.10718  1.13450  0.012103  0.002478 -0.001024     4.884
   0.65836  0.35270  0.10708  1.14016  0.010581  0.002403 -0.000825     4.403
   0.67432  0.33674  0.10680  1.14691  0.009226  0.002321 -0.000298     3.976
   0.69010  0.32097  0.10629  1.15482  0.008087  0.002229  0.000577     3.627
   0.70583  0.30526  0.10554  1.16388  0.007161  0.002129  0.001694     3.363
   0.72167  0.28945  0.10454  1.17369  0.006402  0.002024  0.002967     3.162
   0.73747  0.27369  0.10335  1.18387  0.005735  0.001917  0.004486     2.992
   0.75302  0.25820  0.10195  1.19363  0.005166  0.001812  0.006187     2.850
   0.76841  0.24291  0.10027  1.20178  0.004736  0.001718  0.007693     2.757
   0.78386  0.22758  0.09831  1.20811  0.004411  0.001632  0.008891     2.703
   0.79934  0.21226  0.09610  1.21367  0.004098  0.001547  0.010265     2.648
   0.81467  0.19713  0.09366  1.21778  0.003817  0.001467  0.011678     2.602
   0.82983  0.18221  0.09095  1.21997  0.003580  0.001393  0.012919     2.571
   0.84493  0.16741  0.08797  1.22045  0.003377  0.001322  0.013957     2.554
   0.85995  0.15275  0.08473  1.22006  0.003171  0.001251  0.015160     2.536
   0.87475  0.13836  0.08125  1.21827  0.002979  0.001180  0.016327     2.524
   0.88915  0.12444  0.07757  1.21592  0.002748  0.001106  0.018425     2.485
   0.90314  0.11101  0.07364  1.20948  0.002574  0.001040  0.019779     2.474
   0.91683  0.09797  0.06946  1.20107  0.002428  0.000977  0.020566     2.486
   0.92993  0.08560  0.06517  1.19330  0.002226  0.000905  0.022913     2.460
   0.94206  0.07425  0.06087  1.18179  0.002023  0.000837  0.026080     2.417
   0.95332  0.06387  0.05649  1.16385  0.001894  0.000783  0.027347     2.420
   0.96371  0.05444  0.05215  1.14552  0.001778  0.000728  0.028000     2.443
   0.97301  0.04611  0.04801  1.12905  0.001613  0.000666  0.031123     2.421
   0.98119  0.03891  0.04412  1.10858  0.001477  0.000612  0.033637     2.413
   0.98837  0.03273  0.04046  1.08552  0.001342  0.000561  0.037080     2.391
   0.99470  0.02743  0.03701  1.05752  0.001225  0.000516  0.040316     2.372
   1.00030  0.02288  0.03375  1.02476  0.001123  0.000477  0.043205     2.357
   1.00527  0.01898  0.03066  0.98751  0.001033  0.000441  0.045896     2.343
   1.00973  0.01561  0.02774  0.94554  0.000953  0.000409  0.048185     2.332
   1.01375  0.01272  0.02495  0.89796  0.000875  0.000379  0.050916     2.308
   1.01739  0.01024  0.02228  0.84500  0.000824  0.000354  0.050088     2.325
   1.02073  0.00811  0.01971  0.78758  0.000742  0.000326  0.054310     2.275
   1.02380  0.00630  0.01724  0.71989  0.000710  0.000307  0.050175     2.311
   1.02664  0.00476  0.01485  0.64739  0.000636  0.000283  0.053710     2.243
   1.02926  0.00350  0.01255  0.55923  0.000622  0.000276  0.046793     2.257
   1.03171  0.00246  0.01033  0.47547  0.000589  0.000259  0.041291     2.275
   1.03400  0.00163  0.00819  0.38118  0.000542  0.000245  0.037994     2.215
   1.03618  0.00098  0.00612  0.27914  0.000551  0.000245  0.026472     2.252
   1.03826  0.00048  0.00410  0.17995  0.000499  0.000222  0.018949     2.247
   1.04024  0.00015  0.00214  0.05942  0.000448  0.000201  0.007072     2.230
   1.04215  0.00001  0.00024 -0.07378  0.000448  0.000201  0.008778     2.230
   1.04400  0.00012 -0.00161 -0.21922  0.000411  0.000186  0.028740     2.217
   1.04587  0.00052 -0.00343 -0.37996  0.000402  0.000180  0.050240     2.232
   1.04780  0.00123 -0.00524 -0.51412  0.000457  0.000200  0.057007     2.286
   1.04986  0.00223 -0.00703 -0.63648  0.000474  0.000212  0.071245     2.235
   1.05205  0.00354 -0.00879 -0.73716  0.000541  0.000234  0.067343     2.312
   1.05438  0.00514 -0.01048 -0.81189  0.000604  0.000261  0.066406     2.313
   1.05689  0.00705 -0.01212 -0.86803  0.000690  0.000293  0.059876     2.352
   1.05960  0.00924 -0.01371 -0.90273  0.000806  0.000335  0.050430     2.408
   1.06254  0.01171 -0.01530 -0.93239  0.000885  0.000371  0.048566     2.385
   1.06576  0.01450 -0.01689 -0.96027  0.000967  0.000405  0.045786     2.385
   1.06931  0.01766 -0.01852 -0.98563  0.001052  0.000440  0.042982     2.389
   1.07328  0.02125 -0.02021 -1.00476  0.001169  0.000482  0.038068     2.424
   1.07773  0.02534 -0.02197 -1.02660  0.001236  0.000517  0.038055     2.391
   1.08275  0.03002 -0.02380 -1.04767  0.001332  0.000555  0.035809     2.398
   1.08845  0.03539 -0.02569 -1.06688  0.001439  0.000597  0.033398     2.408
   1.09493  0.04158 -0.02763 -1.08359  0.001563  0.000645  0.030707     2.425
   1.10237  0.04875 -0.02960 -1.09769  0.001705  0.000698  0.028006     2.442
   1.11095  0.05710 -0.03158 -1.10587  0.001907  0.000765  0.023984     2.491
   1.12083  0.06678 -0.03358 -1.11111  0.002110  0.000839  0.021229     2.515
   1.13204  0.07781 -0.03556 -1.11598  0.002299  0.000914  0.019553     2.515
   1.14448  0.09010 -0.03747 -1.11886  0.002521  0.000995  0.017532     2.533
   1.15809  0.10359 -0.03926 -1.12011  0.002755  0.001080  0.015753     2.551
   1.17266  0.11806 -0.04096 -1.12210  0.002948  0.001160  0.014894     2.542
   1.18781  0.13314 -0.04249 -1.12462  0.003127  0.001235  0.014225     2.532
   1.20335  0.14862 -0.04385 -1.12705  0.003307  0.001308  0.013531     2.529
   1.21923  0.16445 -0.04503 -1.12910  0.003489  0.001379  0.012825     2.530
   1.23540  0.18059 -0.04604 -1.13030  0.003685  0.001451  0.012031     2.540
   1.25175  0.19691 -0.04691 -1.13209  0.003839  0.001516  0.011651     2.533
   1.26813  0.21328 -0.04763 -1.13396  0.003988  0.001577  0.011298     2.528
   1.28457  0.22971 -0.04819 -1.13549  0.004143  0.001638  0.010879     2.529
   1.30115  0.24629 -0.04860 -1.13645  0.004312  0.001700  0.010376     2.536
   1.31783  0.26296 -0.04890 -1.13751  0.004462  0.001759  0.010030     2.537
   1.33448  0.27961 -0.04908 -1.13922  0.004575  0.001811  0.009911     2.527
   1.35110  0.29624 -0.04912 -1.14002  0.004731  0.001867  0.009513     2.534
   1.36778  0.31291 -0.04903 -1.14082  0.004874  0.001921  0.009210     2.537
   1.38450  0.32963 -0.04882 -1.14142  0.005017  0.001974  0.008910     2.541
   1.40120  0.34633 -0.04849 -1.14181  0.005163  0.002027  0.008614     2.546
   1.41786  0.36298 -0.04803 -1.14197  0.005310  0.002080  0.008317     2.553
   1.43449  0.37961 -0.04745 -1.14179  0.005467  0.002134  0.007993     2.562
   1.45114  0.39623 -0.04673 -1.14111  0.005641  0.002189  0.007617     2.577
   1.46777  0.41285 -0.04588 -1.13994  0.005833  0.002247  0.007201     2.596
   1.48439  0.42943 -0.04489 -1.13845  0.006030  0.002306  0.006803     2.615
   1.50097  0.44597 -0.04378 -1.13636  0.006256  0.002368  0.006342     2.642
   1.51751  0.46247 -0.04253 -1.13363  0.006516  0.002434  0.005824     2.677
   1.53401  0.47892 -0.04112 -1.13025  0.006816  0.002504  0.005253     2.722
   1.55050  0.49532 -0.03957 -1.12620  0.007168  0.002579  0.004629     2.779
   1.56702  0.51176 -0.03785 -1.12136  0.007603  0.002661  0.003912     2.857
   1.58368  0.52831 -0.03597 -1.11608  0.008103  0.002748  0.003196     2.949
   1.60055  0.54506 -0.03395 -1.11058  0.008662  0.002836  0.002515     3.054
   1.61761  0.56199 -0.03181 -1.10513  0.009255  0.002924  0.001920     3.166
   1.63483  0.57906 -0.02959 -1.09987  0.009868  0.003009  0.001418     3.279
   1.65218  0.59626 -0.02732 -1.09487  0.010490  0.003092  0.001007     3.392
   1.66962  0.61355 -0.02500 -1.09015  0.011105  0.003172  0.000680     3.501
   1.68712  0.63090 -0.02268 -1.08571  0.011702  0.003249  0.000427     3.602
   1.70462  0.64824 -0.02037 -1.08156  0.012261  0.003322  0.000240     3.690
   1.72205  0.66552 -0.01809 -1.07764  0.012791  0.003393  0.000098     3.769
   1.73939  0.68272 -0.01585 -1.07396  0.013281  0.003462 -0.000006     3.836
   1.75663  0.69982 -0.01367 -1.07047  0.013713  0.003528 -0.000074     3.887
   1.77378  0.71684 -0.01156 -1.06715  0.014086  0.003593 -0.000115     3.921
   1.79085  0.73379 -0.00953 -1.06399  0.014391  0.003656 -0.000132     3.937
   1.80784  0.75067 -0.00760 -1.06095  0.014622  0.003717 -0.000126     3.934
   1.82474  0.76746 -0.00576 -1.05804  0.014778  0.003777 -0.000099     3.913
   1.84154  0.78418 -0.00404 -1.05526  0.014850  0.003836 -0.000049     3.871
   1.85823  0.80079 -0.00245 -1.05260  0.014832  0.003892  0.000028     3.810
   1.87481  0.81731 -0.00100 -1.05009  0.014720  0.003947  0.000138     3.729
   1.89126  0.83371  0.00030 -1.04780  0.014504  0.003998  0.000291     3.628
   1.90759  0.85000  0.00143 -1.04580  0.014182  0.004044  0.000500     3.507
   1.92381  0.86619  0.00238 -1.04423  0.013751  0.004081  0.000778     3.369
   1.93987  0.88223  0.00314 -1.04332  0.013222  0.004107  0.001141     3.219
   1.95573  0.89808  0.00370 -1.04335  0.012592  0.004117  0.001614     3.059
   1.97131  0.91366  0.00404 -1.04474  0.011867  0.004103  0.002221     2.892
   1.98653  0.92887  0.00415 -1.04809  0.011042  0.004059  0.003012     2.721
   2.00124  0.94358  0.00401 -1.05410  0.010132  0.003976  0.004041     2.549
   2.01526  0.95760  0.00361 -1.06367  0.009155  0.003847  0.005383     2.380
   2.02837  0.97069  0.00296 -1.07804  0.008122  0.003666  0.007175     2.215
   2.04040  0.98268  0.00205 -1.09884  0.007055  0.003429  0.009624     2.058
   2.05125  0.99348  0.00090 -1.12892  0.005955  0.003126  0.013169     1.905
   2.05783  1.00000  0.00000 -1.11820  0.006551  0.003279  0.011056     1.998
   2.05783  1.00010 -0.00002  1.11820  0.160447  0.005814  0.000000    27.596
   2.06446  1.00660 -0.00133  1.11522  0.155783  0.006268  0.000000    24.854
   2.07221  1.01424 -0.00260  1.11187  0.153704  0.006773  0.000000    22.693
   2.08127  1.02320 -0.00393  1.10787  0.151637  0.007375  0.000000    20.560
   2.09186  1.03369 -0.00534  1.10308  0.149432  0.008096  0.000000    18.457
   2.10423  1.04598 -0.00683  1.09732  0.146927  0.008962  0.000000    16.395
   2.11869  1.06035 -0.00841  1.09040  0.143992  0.010004  0.000000    14.393
   2.13560  1.07717 -0.01009  1.08207  0.140484  0.011262  0.000000    12.475
   2.15535  1.09685 -0.01185  1.07205  0.136240  0.012777  0.000000    10.663
   2.17845  1.11987 -0.01371  1.06002  0.131063  0.014600  0.000000     8.977
   2.20544  1.14679 -0.01563  1.04529  0.124749  0.016838  0.000000     7.409
   2.23698  1.17828 -0.01760  1.02700  0.117062  0.019628  0.000000     5.964
   2.27386  1.21509 -0.01959  1.00360  0.107800  0.023224  0.000000     4.642
   2.31695  1.25814 -0.02156  0.97241  0.096916  0.028107  0.000000     3.448
   2.36732  1.30848 -0.02346  0.94642  0.084241  0.032211  0.000000     2.615
   2.42619  1.36733 -0.02523  0.93141  0.070978  0.034523  0.000000     2.056
   2.49501  1.43612 -0.02677  0.92890  0.058846  0.034884  0.000000     1.687
   2.57543  1.51654 -0.02798  0.93603  0.049146  0.033946  0.000000     1.448
   2.66944  1.61054 -0.02873  0.94749  0.042158  0.032582  0.000000     1.294
   2.77931  1.72041 -0.02886  0.95906  0.037400  0.031325  0.000000     1.194
   2.90773  1.84883 -0.02817  0.96891  0.034217  0.030329  0.000000     1.128
   3.05782  1.99891 -0.02643  0.98211  0.031510  0.029082  0.000000     1.083
