#    s        x        y     Ue/Vinf    Dstar     Theta      Cf       H
   0.00000  1.00000  0.00000  1.09920  0.137567  0.002687 -0.000266    51.206
   0.00668  0.99360  0.00192  1.09904  0.134193  0.002709 -0.000753    49.533
   0.01807  0.98272  0.00530  1.09898  0.130917  0.002719 -0.000750    48.140
   0.03106  0.97032  0.00914  1.09893  0.127317  0.002730 -0.000747    46.635
   0.04516  0.95680  0.01317  1.09888  0.123603  0.002740 -0.000745    45.115
   0.06006  0.94246  0.01720  1.09885  0.119884  0.002748 -0.000743    43.626
   0.07565  0.92739  0.02118  1.09884  0.116191  0.002755 -0.000742    42.179
   0.09186  0.91167  0.02516  1.09883  0.112478  0.002761 -0.000741    40.745
   0.10852  0.89549  0.02915  1.09882  0.108701  0.002767 -0.000739    39.291
   0.12544  0.87905  0.03313  1.09881  0.104877  0.002773 -0.000738    37.823
   0.14250  0.86245  0.03708  1.09879  0.101015  0.002780 -0.000737    36.340
   0.15964  0.84577  0.04099  1.09877  0.097128  0.002787 -0.000736    34.850
   0.17681  0.82904  0.04484  1.09874  0.093220  0.002795 -0.000734    33.354
   0.19398  0.81229  0.04864  1.09871  0.089301  0.002803 -0.000733    31.856
   0.21115  0.79553  0.05238  1.09866  0.085376  0.002812 -0.000731    30.361
   0.22833  0.77875  0.05606  1.09861  0.081438  0.002821 -0.000730    28.867
   0.24546  0.76200  0.05967  1.09856  0.077496  0.002831 -0.000728    27.376
   0.26249  0.74535  0.06319  1.09849  0.073580  0.002841 -0.000727    25.903
   0.27941  0.72877  0.06660  1.09843  0.069713  0.002850 -0.000725    24.459
   0.29629  0.71222  0.06990  1.09837  0.065899  0.002859 -0.000724    23.047
   0.31313  0.69568  0.07308  1.09831  0.062134  0.002868 -0.000724    21.665
   0.32994  0.67915  0.07616  1.09827  0.058433  0.002876 -0.000724    20.319
   0.34670  0.66266  0.07911  1.09823  0.054794  0.002883 -0.000724    19.007
   0.36339  0.64620  0.08193  1.09822  0.051240  0.002888 -0.000725    17.739
   0.38005  0.62976  0.08462  1.09823  0.047772  0.002893 -0.000726    16.514
   0.39672  0.61329  0.08718  1.09829  0.044398  0.002895 -0.000729    15.336
   0.41338  0.59681  0.08962  1.09840  0.041099  0.002895 -0.000733    14.195
   0.42997  0.58038  0.09191  1.09857  0.037901  0.002893 -0.000738    13.099
   0.44649  0.56400  0.09406  1.09883  0.034829  0.002888 -0.000744    12.059
   0.46301  0.54760  0.09605  1.09922  0.031874  0.002880 -0.000753    11.068
   0.47954  0.53117  0.09790  1.09976  0.029037  0.002867 -0.000765    10.127
   0.49603  0.51477  0.09961  1.10049  0.026308  0.002850 -0.000781     9.230
   0.51242  0.49845  0.10115  1.10147  0.023729  0.002828 -0.000801     8.390
   0.52875  0.48218  0.10252  1.10279  0.021316  0.002800 -0.000828     7.613
   0.54509  0.46588  0.10371  1.10453  0.019066  0.002765 -0.000864     6.895
   0.56144  0.44957  0.10475  1.10681  0.016956  0.002723 -0.000913     6.228
   0.57774  0.43329  0.10561  1.10977  0.015013  0.002672 -0.000967     5.619
   0.59394  0.41711  0.10630  1.11357  0.013249  0.002612 -0.000981     5.072
   0.61007  0.40098  0.10679  1.11834  0.011680  0.002543 -0.000884     4.593
   0.62617  0.38489  0.10708  1.12414  0.010293  0.002465 -0.000567     4.176
   0.64227  0.36879  0.10718  1.13090  0.009095  0.002380  0.000022     3.822
   0.65836  0.35270  0.10708  1.13880  0.008052  0.002285  0.000901     3.524
   0.67432  0.33674  0.10680  1.14770  0.007147  0.002182  0.002061     3.275
   0.69010  0.32097  0.10629  1.15699  0.006410  0.002077  0.003357     3.086
   0.70583  0.30526  0.10554  1.16600  0.005826  0.001975  0.004642     2.949
   0.72167  0.28945  0.10454  1.17433  0.005355  0.001878  0.005862     2.851
   0.73747  0.27369  0.10335  1.18221  0.004915  0.001782  0.007281     2.758
   0.75302  0.25820  0.10195  1.18909  0.004512  0.001690  0.008898     2.670
   0.76841  0.24291  0.10027  1.19357  0.004211  0.001609  0.010197     2.617
   0.78386  0.22758  0.09831  1.19587  0.003988  0.001538  0.011075     2.594
   0.79934  0.21226  0.09610  1.19785  0.003741  0.001463  0.012330     2.557
   0.81467  0.19713  0.09366  1.19815  0.003516  0.001392  0.013583     2.525
   0.82983  0.18221  0.09095  1.19637  0.003329  0.001327  0.014586     2.509
   0.84493  0.16741  0.08797  1.19327  0.003150  0.001262  0.015589     2.495
   0.85995  0.15275  0.08473  1.18873  0.002986  0.001199  0.016465     2.491
   0.87475  0.13836  0.08125  1.18360  0.002799  0.001131  0.017807     2.474
   0.88915  0.12444  0.07757  1.17663  0.002603  0.001064  0.019572     2.447
   0.90314  0.11101  0.07364  1.16606  0.002443  0.001002  0.020858     2.438
   0.91683  0.09797  0.06946  1.15325  0.002304  0.000941  0.021667     2.447
   0.92993  0.08560  0.06517  1.14035  0.002131  0.000874  0.023402     2.437
   0.94206  0.07425  0.06087  1.12472  0.001920  0.000806  0.027080     2.382
   0.95332  0.06387  0.05649  1.10026  0.001808  0.000757  0.027920     2.390
   0.96371  0.05444  0.05215  1.07602  0.001698  0.000704  0.028489     2.410
   0.97301  0.04611  0.04801  1.05321  0.001547  0.000646  0.031039     2.396
   0.98119  0.03891  0.04412  1.02663  0.001408  0.000593  0.033901     2.376
   0.98837  0.03273  0.04046  0.99563  0.001292  0.000546  0.036185     2.366
   0.99470  0.02743  0.03701  0.96153  0.001185  0.000502  0.038369     2.359
   1.00030  0.02288  0.03375  0.92308  0.001076  0.000462  0.041724     2.330
   1.00527  0.01898  0.03066  0.87722  0.000994  0.000429  0.043451     2.317
   1.00973  0.01561  0.02774  0.82760  0.000926  0.000399  0.043852     2.321
   1.01375  0.01272  0.02495  0.77390  0.000845  0.000369  0.046175     2.292
   1.01739  0.01024  0.02228  0.71260  0.000792  0.000345  0.044983     2.300
   1.02073  0.00811  0.01971  0.64518  0.000723  0.000320  0.046357     2.258
   1.02380  0.00630  0.01724  0.56960  0.000694  0.000303  0.041504     2.288
   1.02664  0.00476  0.01485  0.49025  0.000631  0.000281  0.040950     2.243
   1.02926  0.00350  0.01255  0.40102  0.000606  0.000267  0.034044     2.270
   1.03171  0.00246  0.01033  0.30504  0.000559  0.000253  0.029467     2.214
   1.03400  0.00163  0.00819  0.20377  0.000561  0.000248  0.018864     2.259
   1.03618  0.00098  0.00612  0.10003  0.000499  0.000224  0.010697     2.230
   1.03826  0.00048  0.00410 -0.01730  0.000499  0.000224  0.001850     2.230
   1.04024  0.00015  0.00214 -0.14713  0.000445  0.000200  0.017713     2.224
   1.04215  0.00001  0.00024 -0.29056  0.000427  0.000192  0.036403     2.226
   1.04400  0.00012 -0.00161 -0.44883  0.000401  0.000181  0.060645     2.211
   1.04587  0.00052 -0.00343 -0.60582  0.000412  0.000183  0.077059     2.249
   1.04780  0.00123 -0.00524 -0.73458  0.000454  0.000199  0.082302     2.281
   1.04986  0.00223 -0.00703 -0.84243  0.000495  0.000217  0.086455     2.282
   1.05205  0.00354 -0.00879 -0.93274  0.000547  0.000237  0.085000     2.304
   1.05438  0.00514 -0.01048 -0.99509  0.000630  0.000267  0.074508     2.361
   1.05689  0.00705 -0.01212 -1.03815  0.000716  0.000300  0.066926     2.384
   1.05960  0.00924 -0.01371 -1.06034  0.000847  0.000344  0.053247     2.464
   1.06254  0.01171 -0.01530 -1.08057  0.000924  0.000381  0.051580     2.428
   1.06576  0.01450 -0.01689 -1.09723  0.001027  0.000420  0.046205     2.448
   1.06931  0.01766 -0.01852 -1.11021  0.001135  0.000461  0.041658     2.463
   1.07328  0.02125 -0.02021 -1.12307  0.001228  0.000500  0.039245     2.455
   1.07773  0.02534 -0.02197 -1.13670  0.001318  0.000539  0.037413     2.445
   1.08275  0.03002 -0.02380 -1.15074  0.001412  0.000579  0.035581     2.439
   1.08845  0.03539 -0.02569 -1.16255  0.001532  0.000624  0.032560     2.456
   1.09493  0.04158 -0.02763 -1.17292  0.001659  0.000673  0.030009     2.466
   1.10237  0.04875 -0.02960 -1.18051  0.001815  0.000729  0.026925     2.490
   1.11095  0.05710 -0.03158 -1.18333  0.002022  0.000797  0.023065     2.536
   1.12083  0.06678 -0.03358 -1.18278  0.002251  0.000875  0.019860     2.573
   1.13204  0.07781 -0.03556 -1.18214  0.002456  0.000953  0.018125     2.577
   1.14448  0.09010 -0.03747 -1.18004  0.002693  0.001037  0.016150     2.596
   1.15809  0.10359 -0.03926 -1.17699  0.002939  0.001125  0.014478     2.612
   1.17266  0.11806 -0.04096 -1.17438  0.003162  0.001211  0.013429     2.612
   1.18781  0.13314 -0.04249 -1.17337  0.003340  0.001288  0.012991     2.593
   1.20335  0.14862 -0.04385 -1.17242  0.003533  0.001365  0.012323     2.589
   1.21923  0.16445 -0.04503 -1.17144  0.003727  0.001439  0.011661     2.590
   1.23540  0.18059 -0.04604 -1.16988  0.003938  0.001515  0.010893     2.600
   1.25175  0.19691 -0.04691 -1.16959  0.004088  0.001581  0.010666     2.586
   1.26813  0.21328 -0.04763 -1.16916  0.004252  0.001646  0.010282     2.583
   1.28457  0.22971 -0.04819 -1.16868  0.004418  0.001710  0.009891     2.583
   1.30115  0.24629 -0.04860 -1.16789  0.004593  0.001774  0.009446     2.589
   1.31783  0.26296 -0.04890 -1.16715  0.004759  0.001836  0.009082     2.591
   1.33448  0.27961 -0.04908 -1.16708  0.004885  0.001892  0.008944     2.582
   1.35110  0.29624 -0.04912 -1.16630  0.005053  0.001951  0.008564     2.590
   1.36778  0.31291 -0.04903 -1.16571  0.005202  0.002008  0.008303     2.591
   1.38450  0.32963 -0.04882 -1.16478  0.005367  0.002065  0.007972     2.599
   1.40120  0.34633 -0.04849 -1.16382  0.005525  0.002121  0.007686     2.604
   1.41786  0.36298 -0.04803 -1.16257  0.005695  0.002178  0.007365     2.614
   1.43449  0.37961 -0.04745 -1.16105  0.005874  0.002236  0.007025     2.627
   1.45114  0.39623 -0.04673 -1.15908  0.006075  0.002296  0.006633     2.646
   1.46777  0.41285 -0.04588 -1.15667  0.006297  0.002358  0.006204     2.670
   1.48439  0.42943 -0.04489 -1.15389  0.006536  0.002423  0.005765     2.698
   1.50097  0.44597 -0.04378 -1.15057  0.006811  0.002490  0.005269     2.735
   1.51751  0.46247 -0.04253 -1.14679  0.007119  0.002561  0.004744     2.779
   1.53401  0.47892 -0.04112 -1.14239  0.007489  0.002637  0.004145     2.840
   1.55050  0.49532 -0.03957 -1.13745  0.007928  0.002718  0.003493     2.917
   1.56702  0.51176 -0.03785 -1.13211  0.008444  0.002803  0.002816     3.013
   1.58368  0.52831 -0.03597 -1.12649  0.009060  0.002891  0.002120     3.134
   1.60055  0.54506 -0.03395 -1.12096  0.009739  0.002978  0.001493     3.271
   1.61761  0.56199 -0.03181 -1.11567  0.010468  0.003062  0.000956     3.418
   1.63483  0.57906 -0.02959 -1.11074  0.011225  0.003143  0.000521     3.572
   1.65218  0.59626 -0.02732 -1.10618  0.012000  0.003219  0.000181     3.728
   1.66962  0.61355 -0.02500 -1.10196  0.012774  0.003292 -0.000073     3.881
   1.68712  0.63090 -0.02268 -1.09804  0.013525  0.003361 -0.000254     4.024
   1.70462  0.64824 -0.02037 -1.09439  0.014244  0.003428 -0.000379     4.156
   1.72205  0.66552 -0.01809 -1.09096  0.014923  0.003492 -0.000463     4.274
   1.73939  0.68272 -0.01585 -1.08773  0.015561  0.003554 -0.000518     4.378
   1.75663  0.69982 -0.01367 -1.08469  0.016131  0.003615 -0.000551     4.462
   1.77378  0.71684 -0.01156 -1.08181  0.016631  0.003674 -0.000567     4.527
   1.79085  0.73379 -0.00953 -1.07906  0.017050  0.003731 -0.000573     4.570
   1.80784  0.75067 -0.00760 -1.07642  0.017387  0.003788 -0.000570     4.590
   1.82474  0.76746 -0.00576 -1.07387  0.017631  0.003843 -0.000559     4.588
   1.84154  0.78418 -0.00404 -1.07139  0.017776  0.003898 -0.000541     4.560
   1.85823  0.80079 -0.00245 -1.06897  0.017811  0.003952 -0.000514     4.507
   1.87481  0.81731 -0.00100 -1.06660  0.017730  0.004006 -0.000473     4.426
   1.89126  0.83371  0.00030 -1.06427  0.017523  0.004058 -0.000413     4.318
   1.90759  0.85000  0.00143 -1.06198  0.017183  0.004111 -0.000324     4.180
   1.92381  0.86619  0.00238 -1.05974  0.016706  0.004162 -0.000189     4.014
   1.93987  0.88223  0.00314 -1.05765  0.016098  0.004210  0.000010     3.823
   1.95573  0.89808  0.00370 -1.05592  0.015357  0.004251  0.000300     3.613
   1.97131  0.91366  0.00404 -1.05489  0.014489  0.004277  0.000712     3.387
   1.98653  0.92887  0.00415 -1.05510  0.013492  0.004280  0.001289     3.153
   2.00124  0.94358  0.00401 -1.05730  0.012386  0.004246  0.002078     2.917
   2.01526  0.95760  0.00361 -1.06239  0.011196  0.004165  0.003136     2.688
   2.02837  0.97069  0.00296 -1.07151  0.009948  0.004027  0.004552     2.470
   2.04040  0.98268  0.00205 -1.08590  0.008680  0.003827  0.006447     2.268
   2.05125  0.99348  0.00090 -1.10712  0.007423  0.003563  0.009027     2.083
   2.05783  1.00000  0.00000 -1.09920  0.008029  0.003693  0.007675     2.174
   2.05783  1.00010 -0.00002  1.09920  0.145595  0.006380  0.000000    22.822
   2.06446  1.00660 -0.00133  1.09624  0.140598  0.006801  0.000000    20.673
   2.07221  1.01424 -0.00262  1.09294  0.138285  0.007264  0.000000    19.038
   2.08127  1.02320 -0.00397  1.08900  0.135973  0.007815  0.000000    17.399
   2.09186  1.03368 -0.00541  1.08424  0.133509  0.008476  0.000000    15.751
   2.10423  1.04596 -0.00695  1.07851  0.130730  0.009272  0.000000    14.099
   2.11869  1.06033 -0.00859  1.07156  0.127501  0.010234  0.000000    12.458
   2.13560  1.07714 -0.01036  1.06313  0.123683  0.011400  0.000000    10.849
   2.15535  1.09681 -0.01224  1.05286  0.119116  0.012817  0.000000     9.294
   2.17845  1.11981 -0.01423  1.04042  0.113610  0.014530  0.000000     7.819
   2.20544  1.14672 -0.01634  1.02495  0.106978  0.016657  0.000000     6.422
   2.23698  1.17819 -0.01856  1.00527  0.099026  0.019365  0.000000     5.114
   2.27386  1.21499 -0.02086  0.97880  0.089670  0.023034  0.000000     3.893
   2.31695  1.25802 -0.02323  0.95134  0.078750  0.026867  0.000000     2.931
   2.36732  1.30833 -0.02563  0.93301  0.066850  0.029384  0.000000     2.275
   2.42619  1.36716 -0.02802  0.92648  0.055415  0.030232  0.000000     1.833
   2.49501  1.43593 -0.03035  0.93089  0.045836  0.029707  0.000000     1.543
   2.57543  1.51633 -0.03254  0.94164  0.038719  0.028554  0.000000     1.356
   2.66944  1.61031 -0.03451  0.95375  0.033813  0.027377  0.000000     1.235
   2.77931  1.72017 -0.03615  0.96449  0.030530  0.026415  0.000000     1.156
   2.90773  1.84858 -0.03733  0.97314  0.028343  0.025688  0.000000     1.103
   3.05782  1.99868 -0.03790  0.98359  0.026547  0.024855  0.000000     1.068
