#    s        x        y     Ue/Vinf    Dstar     Theta      Cf       H
   0.00000  1.00000  0.00000  1.13052  0.166503  0.002434 -0.000281    68.396
   0.00668  0.99360  0.00192  1.13041  0.163146  0.002454 -0.000852    66.493
   0.01807  0.98272  0.00530  1.13039  0.159694  0.002461 -0.000850    64.896
   0.03106  0.97032  0.00914  1.13036  0.155861  0.002468 -0.000847    63.146
   0.04516  0.95680  0.01317  1.13035  0.151866  0.002475 -0.000845    61.360
   0.06006  0.94246  0.01720  1.13034  0.147832  0.002480 -0.000844    59.598
   0.07565  0.92739  0.02118  1.13035  0.143793  0.002485 -0.000842    57.872
   0.09186  0.91167  0.02516  1.13037  0.139708  0.002488 -0.000842    56.148
   0.10852  0.89549  0.02915  1.13038  0.135536  0.002492 -0.000841    54.387
   0.12544  0.87905  0.03313  1.13039  0.131295  0.002497 -0.000839    52.591
   0.14250  0.86245  0.03708  1.13039  0.127002  0.002502 -0.000838    50.764
   0.15964  0.84577  0.04099  1.13039  0.122667  0.002508 -0.000836    48.911
   0.17681  0.82904  0.04484  1.13037  0.118297  0.002515 -0.000834    47.036
   0.19398  0.81229  0.04864  1.13035  0.113903  0.002523 -0.000832    45.146
   0.21115  0.79553  0.05238  1.13032  0.109486  0.002532 -0.000830    43.245
   0.22833  0.77875  0.05606  1.13028  0.105045  0.002541 -0.000827    41.332
   0.24546  0.76200  0.05967  1.13022  0.100585  0.002552 -0.000824    39.412
   0.26249  0.74535  0.06319  1.13016  0.096139  0.002563 -0.000821    37.504
   0.27941  0.72877  0.06660  1.13009  0.091732  0.002575 -0.000818    35.622
   0.29629  0.71222  0.06990  1.13001  0.087361  0.002587 -0.000815    33.768
   0.31313  0.69568  0.07308  1.12993  0.083025  0.002599 -0.000813    31.942
   0.32994  0.67915  0.07616  1.12984  0.078741  0.002611 -0.000810    30.155
   0.34670  0.66266  0.07911  1.12975  0.074503  0.002623 -0.000807    28.401
   0.36339  0.64620  0.08193  1.12965  0.070334  0.002635 -0.000805    26.694
   0.38005  0.62976  0.08462  1.12956  0.066240  0.002646 -0.000803    25.034
   0.39672  0.61329  0.08718  1.12948  0.062215  0.002656 -0.000801    23.421
   0.41338  0.59681  0.08962  1.12940  0.058256  0.002666 -0.000800    21.850
   0.42997  0.58038  0.09191  1.12934  0.054379  0.002675 -0.000800    20.329
   0.44649  0.56400  0.09406  1.12929  0.050609  0.002682 -0.000800    18.868
   0.46301  0.54760  0.09605  1.12928  0.046941  0.002688 -0.000801    17.463
   0.47954  0.53117  0.09790  1.12931  0.043363  0.002692 -0.000804    16.108
   0.49603  0.51477  0.09961  1.12939  0.039883  0.002694 -0.000807    14.805
   0.51242  0.49845  0.10115  1.12955  0.036530  0.002693 -0.000813    13.564
   0.52875  0.48218  0.10252  1.12981  0.033325  0.002689 -0.000820    12.393
   0.54509  0.46588  0.10371  1.13021  0.030248  0.002681 -0.000830    11.282
   0.56144  0.44957  0.10475  1.13080  0.027301  0.002669 -0.000844    10.230
   0.57774  0.43329  0.10561  1.13162  0.024494  0.002651 -0.000863     9.238
   0.59394  0.41711  0.10630  1.13277  0.021858  0.002628 -0.000888     8.317
   0.61007  0.40098  0.10679  1.13434  0.019402  0.002598 -0.000923     7.469
   0.62617  0.38489  0.10708  1.13647  0.017123  0.002560 -0.000970     6.689
   0.64227  0.36879  0.10718  1.13933  0.015032  0.002513 -0.001034     5.982
   0.65836  0.35270  0.10708  1.14313  0.013115  0.002456 -0.001085     5.339
   0.67432  0.33674  0.10680  1.14807  0.011393  0.002389 -0.001042     4.769
   0.69010  0.32097  0.10629  1.15427  0.009893  0.002312 -0.000746     4.279
   0.70583  0.30526  0.10554  1.16165  0.008643  0.002227 -0.000116     3.881
   0.72167  0.28945  0.10454  1.17042  0.007578  0.002131  0.000870     3.556
   0.73747  0.27369  0.10335  1.18048  0.006664  0.002026  0.002204     3.289
   0.75302  0.25820  0.10195  1.19123  0.005888  0.001917  0.003857     3.071
   0.76841  0.24291  0.10027  1.20143  0.005303  0.001813  0.005449     2.925
   0.78386  0.22758  0.09831  1.21053  0.004853  0.001715  0.006872     2.829
   0.79934  0.21226  0.09610  1.21880  0.004457  0.001621  0.008374     2.749
   0.81467  0.19713  0.09366  1.22591  0.004101  0.001531  0.009992     2.679
   0.82983  0.18221  0.09095  1.23091  0.003820  0.001449  0.011336     2.636
   0.84493  0.16741  0.08797  1.23432  0.003582  0.001372  0.012478     2.611
   0.85995  0.15275  0.08473  1.23691  0.003346  0.001295  0.013788     2.585
   0.87475  0.13836  0.08125  1.23834  0.003116  0.001218  0.015263     2.559
   0.88915  0.12444  0.07757  1.23851  0.002874  0.001141  0.017287     2.519
   0.90314  0.11101  0.07364  1.23514  0.002692  0.001072  0.018577     2.511
   0.91683  0.09797  0.06946  1.23047  0.002522  0.001004  0.019727     2.512
   0.92993  0.08560  0.06517  1.22568  0.002317  0.000931  0.021890     2.490
   0.94206  0.07425  0.06087  1.21831  0.002095  0.000859  0.025361     2.440
   0.95332  0.06387  0.05649  1.20415  0.001962  0.000802  0.026618     2.446
   0.96371  0.05444  0.05215  1.18991  0.001834  0.000745  0.027644     2.463
   0.97301  0.04611  0.04801  1.17709  0.001679  0.000683  0.030046     2.457
   0.98119  0.03891  0.04412  1.16246  0.001513  0.000624  0.034061     2.424
   0.98837  0.03273  0.04046  1.14242  0.001384  0.000574  0.037044     2.412
   0.99470  0.02743  0.03701  1.11920  0.001261  0.000528  0.040728     2.390
   1.00030  0.02288  0.03375  1.09124  0.001158  0.000487  0.043807     2.377
   1.00527  0.01898  0.03066  1.05981  0.001067  0.000450  0.046384     2.372
   1.00973  0.01561  0.02774  1.02436  0.000967  0.000414  0.051110     2.338
   1.01375  0.01272  0.02495  0.98027  0.000896  0.000385  0.053498     2.324
   1.01739  0.01024  0.02228  0.93223  0.000838  0.000359  0.053925     2.333
   1.02073  0.00811  0.01971  0.87910  0.000758  0.000332  0.058905     2.284
   1.02380  0.00630  0.01724  0.81457  0.000722  0.000314  0.056335     2.301
   1.02664  0.00476  0.01485  0.74828  0.000666  0.000292  0.057317     2.279
   1.02926  0.00350  0.01255  0.67277  0.000624  0.000274  0.055123     2.275
   1.03171  0.00246  0.01033  0.58667  0.000582  0.000262  0.053940     2.226
   1.03400  0.00163  0.00819  0.49526  0.000583  0.000257  0.043643     2.271
   1.03618  0.00098  0.00612  0.40791  0.000534  0.000237  0.039793     2.255
   1.03826  0.00048  0.00410  0.30456  0.000502  0.000225  0.032274     2.231
   1.04024  0.00015  0.00214  0.19316  0.000482  0.000215  0.020991     2.249
   1.04215  0.00001  0.00024  0.06992  0.000433  0.000194  0.008603     2.230
   1.04400  0.00012 -0.00161 -0.06877  0.000433  0.000194  0.008476     2.230
   1.04587  0.00052 -0.00343 -0.22161  0.000404  0.000182  0.029455     2.220
   1.04780  0.00123 -0.00524 -0.37023  0.000437  0.000193  0.043937     2.261
   1.04986  0.00223 -0.00703 -0.49629  0.000478  0.000212  0.054143     2.256
   1.05205  0.00354 -0.00879 -0.60224  0.000531  0.000233  0.057701     2.281
   1.05438  0.00514 -0.01048 -0.68908  0.000586  0.000256  0.059392     2.290
   1.05689  0.00705 -0.01212 -0.75196  0.000678  0.000289  0.053166     2.344
   1.05960  0.00924 -0.01371 -0.79730  0.000770  0.000326  0.049016     2.358
   1.06254  0.01171 -0.01530 -0.83619  0.000849  0.000361  0.046752     2.354
   1.06576  0.01450 -0.01689 -0.87028  0.000933  0.000395  0.043922     2.363
   1.06931  0.01766 -0.01852 -0.89896  0.001028  0.000432  0.040479     2.380
   1.07328  0.02125 -0.02021 -0.92617  0.001111  0.000468  0.038848     2.374
   1.07773  0.02534 -0.02197 -0.95275  0.001195  0.000504  0.037192     2.373
   1.08275  0.03002 -0.02380 -0.97817  0.001286  0.000541  0.035344     2.377
   1.08845  0.03539 -0.02569 -1.00137  0.001392  0.000583  0.033033     2.389
   1.09493  0.04158 -0.02763 -1.02389  0.001495  0.000626  0.031412     2.390
   1.10237  0.04875 -0.02960 -1.04163  0.001648  0.000680  0.028019     2.424
   1.11095  0.05710 -0.03158 -1.05417  0.001832  0.000745  0.024591     2.460
   1.12083  0.06678 -0.03358 -1.06335  0.002027  0.000817  0.021879     2.483
   1.13204  0.07781 -0.03556 -1.07141  0.002216  0.000891  0.020070     2.487
   1.14448  0.09010 -0.03747 -1.07760  0.002425  0.000970  0.018185     2.501
   1.15809  0.10359 -0.03926 -1.08195  0.002647  0.001052  0.016454     2.516
   1.17266  0.11806 -0.04096 -1.08649  0.002838  0.001131  0.015506     2.510
   1.18781  0.13314 -0.04249 -1.09183  0.003001  0.001202  0.014968     2.496
   1.20335  0.14862 -0.04385 -1.09628  0.003183  0.001274  0.014120     2.499
   1.21923  0.16445 -0.04503 -1.10028  0.003358  0.001343  0.013413     2.500
   1.23540  0.18059 -0.04604 -1.10327  0.003545  0.001413  0.012620     2.509
   1.25175  0.19691 -0.04691 -1.10680  0.003691  0.001475  0.012264     2.501
   1.26813  0.21328 -0.04763 -1.10988  0.003845  0.001537  0.011803     2.502
   1.28457  0.22971 -0.04819 -1.11281  0.003990  0.001596  0.011418     2.500
   1.30115  0.24629 -0.04860 -1.11507  0.004150  0.001655  0.010925     2.507
   1.31783  0.26296 -0.04890 -1.11739  0.004290  0.001712  0.010593     2.506
   1.33448  0.27961 -0.04908 -1.11990  0.004412  0.001764  0.010377     2.502
   1.35110  0.29624 -0.04912 -1.12183  0.004554  0.001817  0.010030     2.506
   1.36778  0.31291 -0.04903 -1.12356  0.004692  0.001870  0.009714     2.509
   1.38450  0.32963 -0.04882 -1.12516  0.004824  0.001921  0.009439     2.511
   1.40120  0.34633 -0.04849 -1.12646  0.004962  0.001972  0.009142     2.516
   1.41786  0.36298 -0.04803 -1.12768  0.005091  0.002022  0.008897     2.518
   1.43449  0.37961 -0.04745 -1.12820  0.005248  0.002074  0.008524     2.530
   1.45114  0.39623 -0.04673 -1.12845  0.005404  0.002127  0.008182     2.541
   1.46777  0.41285 -0.04588 -1.12805  0.005583  0.002182  0.007767     2.558
   1.48439  0.42943 -0.04489 -1.12732  0.005764  0.002238  0.007374     2.575
   1.50097  0.44597 -0.04378 -1.12602  0.005967  0.002297  0.006938     2.598
   1.51751  0.46247 -0.04253 -1.12408  0.006197  0.002359  0.006449     2.627
   1.53401  0.47892 -0.04112 -1.12132  0.006473  0.002427  0.005872     2.667
   1.55050  0.49532 -0.03957 -1.11783  0.006792  0.002499  0.005246     2.717
   1.56702  0.51176 -0.03785 -1.11356  0.007173  0.002578  0.004554     2.782
   1.58368  0.52831 -0.03597 -1.10858  0.007627  0.002663  0.003815     2.864
   1.60055  0.54506 -0.03395 -1.10331  0.008126  0.002750  0.003122     2.955
   1.61761  0.56199 -0.03181 -1.09799  0.008650  0.002837  0.002514     3.049
   1.63483  0.57906 -0.02959 -1.09273  0.009195  0.002924  0.001987     3.145
   1.65218  0.59626 -0.02732 -1.08767  0.009738  0.003008  0.001556     3.237
   1.66962  0.61355 -0.02500 -1.08282  0.010279  0.003090  0.001202     3.326
   1.68712  0.63090 -0.02268 -1.07825  0.010792  0.003169  0.000931     3.405
   1.70462  0.64824 -0.02037 -1.07392  0.011276  0.003246  0.000721     3.474
   1.72205  0.66552 -0.01809 -1.06983  0.011729  0.003319  0.000561     3.533
   1.73939  0.68272 -0.01585 -1.06597  0.012144  0.003391  0.000443     3.582
   1.75663  0.69982 -0.01367 -1.06233  0.012510  0.003459  0.000364     3.616
   1.77378  0.71684 -0.01156 -1.05888  0.012820  0.003526  0.000318     3.636
   1.79085  0.73379 -0.00953 -1.05561  0.013068  0.003590  0.000305     3.640
   1.80784  0.75067 -0.00760 -1.05251  0.013254  0.003653  0.000318     3.629
   1.82474  0.76746 -0.00576 -1.04958  0.013371  0.003713  0.000362     3.601
   1.84154  0.78418 -0.00404 -1.04684  0.013414  0.003770  0.000436     3.558
   1.85823  0.80079 -0.00245 -1.04432  0.013382  0.003825  0.000544     3.499
   1.87481  0.81731 -0.00100 -1.04207  0.013264  0.003875  0.000695     3.423
   1.89126  0.83371  0.00030 -1.04017  0.013058  0.003919  0.000896     3.332
   1.90759  0.85000  0.00143 -1.03874  0.012761  0.003955  0.001161     3.226
   1.92381  0.86619  0.00238 -1.03795  0.012369  0.003981  0.001502     3.107
   1.93987  0.88223  0.00314 -1.03803  0.011894  0.003992  0.001933     2.979
   1.95573  0.89808  0.00370 -1.03928  0.011331  0.003985  0.002477     2.844
   1.97131  0.91366  0.00404 -1.04211  0.010687  0.003954  0.003162     2.703
   1.98653  0.92887  0.00415 -1.04712  0.009955  0.003892  0.004042     2.558
   2.00124  0.94358  0.00401 -1.05503  0.009146  0.003793  0.005177     2.412
   2.01526  0.95760  0.00361 -1.06674  0.008274  0.003651  0.006655     2.266
   2.02837  0.97069  0.00296 -1.08362  0.007345  0.003460  0.008642     2.123
   2.04040  0.98268  0.00205 -1.10751  0.006374  0.003216  0.011394     1.982
   2.05125  0.99348  0.00090 -1.14226  0.005348  0.002904  0.015524     1.842
   2.05783  1.00000  0.00000 -1.13052  0.005923  0.003060  0.012960     1.936
   2.05783  1.00010 -0.00002  1.13052  0.172426  0.005494  0.000000    31.383
   2.06446  1.00660 -0.00132  1.12756  0.167968  0.005972  0.000000    28.127
   2.07221  1.01424 -0.00259  1.12419  0.166040  0.006510  0.000000    25.507
   2.08127  1.02321 -0.00390  1.12017  0.164131  0.007150  0.000000    22.955
   2.09186  1.03370 -0.00528  1.11538  0.162096  0.007915  0.000000    20.479
   2.10423  1.04599 -0.00674  1.10965  0.159777  0.008832  0.000000    18.091
   2.11869  1.06037 -0.00828  1.10280  0.157041  0.009932  0.000000    15.811
   2.13560  1.07720 -0.00990  1.09459  0.153751  0.011255  0.000000    13.661
   2.15535  1.09688 -0.01158  1.08480  0.149739  0.012839  0.000000    11.662
   2.17845  1.11991 -0.01333  1.07312  0.144810  0.014739  0.000000     9.825
   2.20544  1.14684 -0.01512  1.05894  0.138753  0.017056  0.000000     8.135
   2.23698  1.17833 -0.01692  1.04154  0.131317  0.019918  0.000000     6.593
   2.27386  1.21516 -0.01869  1.01978  0.122248  0.023530  0.000000     5.195
   2.31695  1.25822 -0.02038  0.99108  0.111424  0.028376  0.000000     3.927
   2.36732  1.30857 -0.02193  0.95932  0.098659  0.033854  0.000000     2.914
   2.42619  1.36743 -0.02326  0.93836  0.084430  0.037462  0.000000     2.254
   2.49501  1.43623 -0.02424  0.93005  0.070558  0.038829  0.000000     1.817
   2.57543  1.51666 -0.02476  0.93319  0.058768  0.038352  0.000000     1.532
   2.66944  1.61066 -0.02464  0.94309  0.049876  0.036985  0.000000     1.349
   2.77931  1.72053 -0.02370  0.95477  0.043670  0.035518  0.000000     1.230
   2.90773  1.84893 -0.02169  0.96542  0.039473  0.034283  0.000000     1.151
   3.05782  1.99899 -0.01834  0.98118  0.035778  0.032592  0.000000     1.098
