#    s        x        y     Ue/Vinf    Dstar     Theta      Cf       H
   0.00000  1.00000  0.00000  1.09406  0.133576  0.002727 -0.000263    48.979
   0.00668  0.99360  0.00192  1.09390  0.130191  0.002750 -0.000738    47.336
   0.01807  0.98272  0.00530  1.09384  0.126936  0.002761 -0.000736    45.973
   0.03106  0.97032  0.00914  1.09378  0.123366  0.002772 -0.000733    44.503
   0.04516  0.95680  0.01317  1.09373  0.119690  0.002782 -0.000731    43.022
   0.06006  0.94246  0.01720  1.09369  0.116014  0.002791 -0.000729    41.574
   0.07565  0.92739  0.02118  1.09367  0.112368  0.002798 -0.000728    40.167
   0.09186  0.91167  0.02516  1.09366  0.108707  0.002804 -0.000726    38.774
   0.10852  0.89549  0.02915  1.09365  0.104987  0.002810 -0.000725    37.366
   0.12544  0.87905  0.03313  1.09364  0.101220  0.002816 -0.000724    35.943
   0.14250  0.86245  0.03708  1.09362  0.097421  0.002823 -0.000723    34.510
   0.15964  0.84577  0.04099  1.09360  0.093597  0.002830 -0.000722    33.070
   0.17681  0.82904  0.04484  1.09357  0.089756  0.002838 -0.000720    31.626
   0.19398  0.81229  0.04864  1.09353  0.085905  0.002846 -0.000719    30.182
   0.21115  0.79553  0.05238  1.09349  0.082052  0.002855 -0.000718    28.742
   0.22833  0.77875  0.05606  1.09345  0.078188  0.002864 -0.000716    27.304
   0.24546  0.76200  0.05967  1.09339  0.074322  0.002873 -0.000715    25.871
   0.26249  0.74535  0.06319  1.09333  0.070484  0.002882 -0.000714    24.456
   0.27941  0.72877  0.06660  1.09328  0.066698  0.002891 -0.000713    23.071
   0.29629  0.71222  0.06990  1.09322  0.062965  0.002899 -0.000713    21.716
   0.31313  0.69568  0.07308  1.09318  0.059287  0.002907 -0.000712    20.393
   0.32994  0.67915  0.07616  1.09315  0.055672  0.002914 -0.000713    19.105
   0.34670  0.66266  0.07911  1.09313  0.052125  0.002920 -0.000713    17.853
   0.36339  0.64620  0.08193  1.09315  0.048662  0.002924 -0.000715    16.641
   0.38005  0.62976  0.08462  1.09320  0.045291  0.002927 -0.000717    15.475
   0.39672  0.61329  0.08718  1.09329  0.042012  0.002927 -0.000721    14.352
   0.41338  0.59681  0.08962  1.09345  0.038818  0.002926 -0.000725    13.269
   0.42997  0.58038  0.09191  1.09369  0.035724  0.002921 -0.000732    12.229
   0.44649  0.56400  0.09406  1.09404  0.032759  0.002913 -0.000740    11.244
   0.46301  0.54760  0.09605  1.09454  0.029914  0.002902 -0.000751    10.309
   0.47954  0.53117  0.09790  1.09522  0.027189  0.002886 -0.000765     9.422
   0.49603  0.51477  0.09961  1.09612  0.024578  0.002865 -0.000784     8.579
   0.51242  0.49845  0.10115  1.09732  0.022120  0.002839 -0.000808     7.793
   0.52875  0.48218  0.10252  1.09891  0.019836  0.002806 -0.000841     7.070
   0.54509  0.46588  0.10371  1.10100  0.017705  0.002765 -0.000884     6.403
   0.56144  0.44957  0.10475  1.10370  0.015731  0.002717 -0.000938     5.790
   0.57774  0.43329  0.10561  1.10716  0.013910  0.002660 -0.000968     5.229
   0.59394  0.41711  0.10630  1.11154  0.012286  0.002594 -0.000919     4.736
   0.61007  0.40098  0.10679  1.11692  0.010844  0.002519 -0.000688     4.305
   0.62617  0.38489  0.10708  1.12320  0.009577  0.002437 -0.000197     3.930
   0.64227  0.36879  0.10718  1.13053  0.008502  0.002346  0.000547     3.624
   0.65836  0.35270  0.10708  1.13892  0.007564  0.002247  0.001553     3.367
   0.67432  0.33674  0.10680  1.14800  0.006763  0.002142  0.002771     3.158
   0.69010  0.32097  0.10629  1.15717  0.006099  0.002037  0.004110     2.994
   0.70583  0.30526  0.10554  1.16553  0.005596  0.001939  0.005303     2.886
   0.72167  0.28945  0.10454  1.17335  0.005155  0.001844  0.006559     2.796
   0.73747  0.27369  0.10335  1.18034  0.004761  0.001752  0.007901     2.718
   0.75302  0.25820  0.10195  1.18629  0.004394  0.001664  0.009436     2.641
   0.76841  0.24291  0.10027  1.18997  0.004109  0.001586  0.010722     2.592
   0.78386  0.22758  0.09831  1.19128  0.003906  0.001517  0.011514     2.574
   0.79934  0.21226  0.09610  1.19253  0.003664  0.001444  0.012804     2.537
   0.81467  0.19713  0.09366  1.19179  0.003453  0.001376  0.013987     2.510
   0.82983  0.18221  0.09095  1.18905  0.003275  0.001312  0.014937     2.496
   0.84493  0.16741  0.08797  1.18500  0.003106  0.001249  0.015853     2.486
   0.85995  0.15275  0.08473  1.17979  0.002938  0.001186  0.016826     2.478
   0.87475  0.13836  0.08125  1.17350  0.002761  0.001120  0.018055     2.465
   0.88915  0.12444  0.07757  1.16565  0.002562  0.001052  0.019965     2.434
   0.90314  0.11101  0.07364  1.15344  0.002421  0.000994  0.020865     2.436
   0.91683  0.09797  0.06946  1.14018  0.002273  0.000932  0.021907     2.439
   0.92993  0.08560  0.06517  1.12591  0.002099  0.000866  0.023780     2.424
   0.94206  0.07425  0.06087  1.10822  0.001904  0.000800  0.026990     2.379
   0.95332  0.06387  0.05649  1.08283  0.001787  0.000750  0.027992     2.383
   0.96371  0.05444  0.05215  1.05706  0.001680  0.000699  0.028470     2.404
   0.97301  0.04611  0.04801  1.03278  0.001531  0.000641  0.030954     2.390
   0.98119  0.03891  0.04412  1.00458  0.001392  0.000588  0.033780     2.369
   0.98837  0.03273  0.04046  0.97173  0.001278  0.000541  0.035909     2.360
   0.99470  0.02743  0.03701  0.93578  0.001172  0.000498  0.037994     2.352
   1.00030  0.02288  0.03375  0.89463  0.001060  0.000458  0.041719     2.313
   1.00527  0.01898  0.03066  0.84603  0.000998  0.000429  0.041324     2.327
   1.00973  0.01561  0.02774  0.79703  0.000913  0.000395  0.043221     2.311
   1.01375  0.01272  0.02495  0.74073  0.000840  0.000366  0.044370     2.294
   1.01739  0.01024  0.02228  0.67601  0.000778  0.000343  0.044768     2.269
   1.02073  0.00811  0.01971  0.60751  0.000741  0.000322  0.040792     2.305
   1.02380  0.00630  0.01724  0.53418  0.000661  0.000294  0.042394     2.248
   1.02664  0.00476  0.01485  0.44609  0.000635  0.000281  0.036449     2.259
   1.02926  0.00350  0.01255  0.35568  0.000594  0.000264  0.031498     2.246
   1.03171  0.00246  0.01033  0.25659  0.000574  0.000259  0.024046     2.219
   1.03400  0.00163  0.00819  0.15939  0.000565  0.000250  0.014680     2.257
   1.03618  0.00098  0.00612  0.05307  0.000482  0.000216  0.005877     2.230
   1.03826  0.00048  0.00410 -0.07258  0.000482  0.000216  0.008031     2.230
   1.04024  0.00015  0.00214 -0.19958  0.000463  0.000208  0.023143     2.223
   1.04215  0.00001  0.00024 -0.35376  0.000404  0.000184  0.048073     2.197
   1.04400  0.00012 -0.00161 -0.50989  0.000414  0.000184  0.064176     2.255
   1.04587  0.00052 -0.00343 -0.65685  0.000418  0.000188  0.083973     2.227
   1.04780  0.00123 -0.00524 -0.79347  0.000446  0.000197  0.091860     2.267
   1.04986  0.00223 -0.00703 -0.90190  0.000495  0.000215  0.091351     2.298
   1.05205  0.00354 -0.00879 -0.98469  0.000556  0.000239  0.086667     2.324
   1.05438  0.00514 -0.01048 -1.04310  0.000635  0.000269  0.077270     2.364
   1.05689  0.00705 -0.01212 -1.08352  0.000723  0.000302  0.068499     2.394
   1.05960  0.00924 -0.01371 -1.10331  0.000855  0.000346  0.054344     2.474
   1.06254  0.01171 -0.01530 -1.11883  0.000947  0.000385  0.050496     2.459
   1.06576  0.01450 -0.01689 -1.13307  0.001042  0.000424  0.046494     2.459
   1.06931  0.01766 -0.01852 -1.14413  0.001151  0.000465  0.041765     2.476
   1.07328  0.02125 -0.02021 -1.15428  0.001253  0.000506  0.038701     2.476
   1.07773  0.02534 -0.02197 -1.16615  0.001339  0.000545  0.037315     2.457
   1.08275  0.03002 -0.02380 -1.17752  0.001442  0.000587  0.034909     2.459
   1.08845  0.03539 -0.02569 -1.18806  0.001555  0.000631  0.032503     2.464
   1.09493  0.04158 -0.02763 -1.19726  0.001682  0.000679  0.029949     2.475
   1.10237  0.04875 -0.02960 -1.20239  0.001855  0.000738  0.026223     2.512
   1.11095  0.05710 -0.03158 -1.20343  0.002062  0.000807  0.022531     2.554
   1.12083  0.06678 -0.03358 -1.20183  0.002287  0.000884  0.019573     2.586
   1.13204  0.07781 -0.03556 -1.19959  0.002505  0.000964  0.017608     2.598
   1.14448  0.09010 -0.03747 -1.19609  0.002747  0.001050  0.015662     2.617
   1.15809  0.10359 -0.03926 -1.19173  0.003001  0.001139  0.013985     2.635
   1.17266  0.11806 -0.04096 -1.18830  0.003220  0.001224  0.013083     2.629
   1.18781  0.13314 -0.04249 -1.18644  0.003400  0.001303  0.012657     2.610
   1.20335  0.14862 -0.04385 -1.18429  0.003609  0.001382  0.011866     2.612
   1.21923  0.16445 -0.04503 -1.18243  0.003806  0.001458  0.011250     2.611
   1.23540  0.18059 -0.04604 -1.18051  0.004005  0.001532  0.010634     2.614
   1.25175  0.19691 -0.04691 -1.17924  0.004175  0.001601  0.010273     2.607
   1.26813  0.21328 -0.04763 -1.17840  0.004331  0.001666  0.009990     2.599
   1.28457  0.22971 -0.04819 -1.17738  0.004501  0.001731  0.009595     2.600
   1.30115  0.24629 -0.04860 -1.17602  0.004684  0.001797  0.009135     2.607
   1.31783  0.26296 -0.04890 -1.17484  0.004850  0.001859  0.008795     2.609
   1.33448  0.27961 -0.04908 -1.17415  0.004988  0.001917  0.008611     2.602
   1.35110  0.29624 -0.04912 -1.17319  0.005144  0.001975  0.008321     2.604
   1.36778  0.31291 -0.04903 -1.17187  0.005318  0.002035  0.007957     2.613
   1.38450  0.32963 -0.04882 -1.17079  0.005469  0.002091  0.007715     2.615
   1.40120  0.34633 -0.04849 -1.16932  0.005643  0.002150  0.007385     2.625
   1.41786  0.36298 -0.04803 -1.16780  0.005812  0.002207  0.007090     2.633
   1.43449  0.37961 -0.04745 -1.16585  0.006004  0.002267  0.006727     2.649
   1.45114  0.39623 -0.04673 -1.16349  0.006217  0.002328  0.006321     2.670
   1.46777  0.41285 -0.04588 -1.16076  0.006448  0.002392  0.005896     2.696
   1.48439  0.42943 -0.04489 -1.15758  0.006706  0.002458  0.005431     2.728
   1.50097  0.44597 -0.04378 -1.15397  0.006993  0.002527  0.004939     2.767
   1.51751  0.46247 -0.04253 -1.14987  0.007324  0.002600  0.004401     2.817
   1.53401  0.47892 -0.04112 -1.14522  0.007716  0.002678  0.003801     2.882
   1.55050  0.49532 -0.03957 -1.14013  0.008180  0.002759  0.003159     2.965
   1.56702  0.51176 -0.03785 -1.13465  0.008737  0.002845  0.002476     3.071
   1.58368  0.52831 -0.03597 -1.12905  0.009385  0.002932  0.001805     3.201
   1.60055  0.54506 -0.03395 -1.12359  0.010108  0.003018  0.001198     3.349
   1.61761  0.56199 -0.03181 -1.11845  0.010884  0.003101  0.000688     3.510
   1.63483  0.57906 -0.02959 -1.11370  0.011690  0.003179  0.000284     3.678
   1.65218  0.59626 -0.02732 -1.10933  0.012516  0.003252 -0.000025     3.848
   1.66962  0.61355 -0.02500 -1.10530  0.013339  0.003322 -0.000248     4.015
   1.68712  0.63090 -0.02268 -1.10156  0.014144  0.003389 -0.000401     4.173
   1.70462  0.64824 -0.02037 -1.09806  0.014914  0.003454 -0.000502     4.318
   1.72205  0.66552 -0.01809 -1.09478  0.015642  0.003516 -0.000565     4.448
   1.73939  0.68272 -0.01585 -1.09172  0.016326  0.003577 -0.000603     4.565
   1.75663  0.69982 -0.01367 -1.08886  0.016943  0.003635 -0.000623     4.661
   1.77378  0.71684 -0.01156 -1.08615  0.017485  0.003691 -0.000631     4.737
   1.79085  0.73379 -0.00953 -1.08356  0.017944  0.003747 -0.000631     4.789
   1.80784  0.75067 -0.00760 -1.08108  0.018317  0.003801 -0.000626     4.819
   1.82474  0.76746 -0.00576 -1.07868  0.018592  0.003855 -0.000617     4.823
   1.84154  0.78418 -0.00404 -1.07634  0.018764  0.003908 -0.000603     4.802
   1.85823  0.80079 -0.00245 -1.07404  0.018822  0.003960 -0.000585     4.753
   1.87481  0.81731 -0.00100 -1.07178  0.018758  0.004013 -0.000559     4.675
   1.89126  0.83371  0.00030 -1.06954  0.018561  0.004065 -0.000520     4.567
   1.90759  0.85000  0.00143 -1.06733  0.018225  0.004116 -0.000462     4.428
   1.92381  0.86619  0.00238 -1.06515  0.017742  0.004167 -0.000370     4.258
   1.93987  0.88223  0.00314 -1.06299  0.017120  0.004217 -0.000226     4.060
   1.95573  0.89808  0.00370 -1.06099  0.016355  0.004264 -0.000004     3.836
   1.97131  0.91366  0.00404 -1.05943  0.015450  0.004301  0.000330     3.592
   1.98653  0.92887  0.00415 -1.05879  0.014407  0.004319  0.000820     3.336
   2.00124  0.94358  0.00401 -1.05979  0.013242  0.004305  0.001514     3.076
   2.01526  0.95760  0.00361 -1.06337  0.011986  0.004246  0.002466     2.823
   2.02837  0.97069  0.00296 -1.07063  0.010669  0.004130  0.003750     2.583
   2.04040  0.98268  0.00205 -1.08276  0.009334  0.003950  0.005466     2.363
   2.05125  0.99348  0.00090 -1.10101  0.008024  0.003708  0.007758     2.164
   2.05783  1.00000  0.00000 -1.09406  0.008630  0.003827  0.006614     2.255
   2.05783  1.00010 -0.00002  1.09406  0.142206  0.006555  0.000000    21.695
   2.06446  1.00660 -0.00133  1.09111  0.137107  0.006970  0.000000    19.672
   2.07221  1.01424 -0.00262  1.08782  0.134724  0.007424  0.000000    18.147
   2.08127  1.02319 -0.00398  1.08387  0.132341  0.007965  0.000000    16.615
   2.09186  1.03368 -0.00543  1.07913  0.129804  0.008614  0.000000    15.069
   2.10423  1.04596 -0.00698  1.07339  0.126946  0.009396  0.000000    13.511
   2.11869  1.06032 -0.00864  1.06643  0.123635  0.010341  0.000000    11.956
   2.13560  1.07713 -0.01043  1.05796  0.119731  0.011487  0.000000    10.423
   2.15535  1.09680 -0.01233  1.04763  0.115076  0.012882  0.000000     8.933
   2.17845  1.11980 -0.01437  1.03506  0.109484  0.014573  0.000000     7.513
   2.20544  1.14670 -0.01653  1.01936  0.102771  0.016680  0.000000     6.161
   2.23698  1.17817 -0.01881  0.99922  0.094762  0.019383  0.000000     4.889
   2.27386  1.21496 -0.02119  0.97189  0.085403  0.023078  0.000000     3.701
   2.31695  1.25799 -0.02366  0.94670  0.074532  0.026494  0.000000     2.813
   2.36732  1.30829 -0.02619  0.93052  0.062944  0.028633  0.000000     2.198
   2.42619  1.36711 -0.02874  0.92610  0.052052  0.029183  0.000000     1.784
   2.49501  1.43588 -0.03127  0.93196  0.043116  0.028519  0.000000     1.512
   2.57543  1.51627 -0.03372  0.94325  0.036576  0.027368  0.000000     1.336
   2.66944  1.61024 -0.03601  0.95529  0.032100  0.026253  0.000000     1.223
   2.77931  1.72009 -0.03804  0.96574  0.029107  0.025358  0.000000     1.148
   2.90773  1.84850 -0.03970  0.97409  0.027112  0.024686  0.000000     1.098
   3.05782  1.99859 -0.04086  0.98398  0.025484  0.023930  0.000000     1.065
