#    s        x        y     Ue/Vinf    Dstar     Theta      Cf       H
   0.00000  1.00000  0.00000  1.07938  0.121092  0.002861 -0.000256    42.331
   0.00668  0.99360  0.00192  1.07918  0.117647  0.002886 -0.000696    40.769
   0.01807  0.98272  0.00530  1.07910  0.114469  0.002897 -0.000693    39.508
   0.03106  0.97032  0.00914  1.07903  0.111012  0.002909 -0.000691    38.159
   0.04516  0.95680  0.01317  1.07897  0.107473  0.002920 -0.000689    36.809
   0.06006  0.94246  0.01720  1.07893  0.103953  0.002929 -0.000687    35.494
   0.07565  0.92739  0.02118  1.07890  0.100478  0.002936 -0.000686    34.224
   0.09186  0.91167  0.02516  1.07889  0.097002  0.002942 -0.000685    32.970
   0.10852  0.89549  0.02915  1.07887  0.093479  0.002948 -0.000684    31.708
   0.12544  0.87905  0.03313  1.07886  0.089918  0.002954 -0.000683    30.436
   0.14250  0.86245  0.03708  1.07884  0.086332  0.002961 -0.000683    29.159
   0.15964  0.84577  0.04099  1.07883  0.082731  0.002967 -0.000682    27.881
   0.17681  0.82904  0.04484  1.07880  0.079119  0.002974 -0.000681    26.602
   0.19398  0.81229  0.04864  1.07878  0.075505  0.002981 -0.000680    25.327
   0.21115  0.79553  0.05238  1.07875  0.071892  0.002988 -0.000680    24.058
   0.22833  0.77875  0.05606  1.07872  0.068279  0.002995 -0.000679    22.794
   0.24546  0.76200  0.05967  1.07869  0.064669  0.003003 -0.000679    21.538
   0.26249  0.74535  0.06319  1.07866  0.061094  0.003009 -0.000679    20.301
   0.27941  0.72877  0.06660  1.07864  0.057578  0.003016 -0.000679    19.093
   0.29629  0.71222  0.06990  1.07863  0.054121  0.003021 -0.000680    17.916
   0.31313  0.69568  0.07308  1.07865  0.050726  0.003025 -0.000682    16.770
   0.32994  0.67915  0.07616  1.07869  0.047403  0.003028 -0.000684    15.657
   0.34670  0.66266  0.07911  1.07878  0.044155  0.003028 -0.000687    14.580
   0.36339  0.64620  0.08193  1.07891  0.040997  0.003027 -0.000691    13.542
   0.38005  0.62976  0.08462  1.07912  0.037942  0.003024 -0.000696    12.549
   0.39672  0.61329  0.08718  1.07941  0.034987  0.003017 -0.000703    11.597
   0.41338  0.59681  0.08962  1.07982  0.032126  0.003007 -0.000712    10.683
   0.42997  0.58038  0.09191  1.08037  0.029372  0.002993 -0.000723     9.812
   0.44649  0.56400  0.09406  1.08111  0.026755  0.002975 -0.000738     8.992
   0.46301  0.54760  0.09605  1.08209  0.024278  0.002952 -0.000757     8.224
   0.47954  0.53117  0.09790  1.08337  0.021921  0.002923 -0.000782     7.498
   0.49603  0.51477  0.09961  1.08502  0.019695  0.002888 -0.000816     6.819
   0.51242  0.49845  0.10115  1.08715  0.017629  0.002846 -0.000859     6.193
   0.52875  0.48218  0.10252  1.08987  0.015739  0.002797 -0.000907     5.628
   0.54509  0.46588  0.10371  1.09333  0.014011  0.002738 -0.000923     5.116
   0.56144  0.44957  0.10475  1.09765  0.012444  0.002671 -0.000854     4.659
   0.57774  0.43329  0.10561  1.10286  0.011037  0.002596 -0.000610     4.252
   0.59394  0.41711  0.10630  1.10887  0.009792  0.002514 -0.000125     3.895
   0.61007  0.40098  0.10679  1.11581  0.008740  0.002424  0.000576     3.605
   0.62617  0.38489  0.10708  1.12365  0.007832  0.002326  0.001479     3.367
   0.64227  0.36879  0.10718  1.13207  0.007070  0.002224  0.002510     3.179
   0.65836  0.35270  0.10708  1.14072  0.006415  0.002121  0.003664     3.025
   0.67432  0.33674  0.10680  1.14918  0.005847  0.002019  0.004934     2.896
   0.69010  0.32097  0.10629  1.15688  0.005367  0.001922  0.006242     2.792
   0.70583  0.30526  0.10554  1.16307  0.005004  0.001835  0.007320     2.727
   0.72167  0.28945  0.10454  1.16813  0.004699  0.001753  0.008293     2.680
   0.73747  0.27369  0.10335  1.17285  0.004376  0.001669  0.009591     2.621
   0.75302  0.25820  0.10195  1.17608  0.004084  0.001591  0.010957     2.567
   0.76841  0.24291  0.10027  1.17708  0.003850  0.001521  0.012109     2.531
   0.78386  0.22758  0.09831  1.17587  0.003670  0.001458  0.012881     2.517
   0.79934  0.21226  0.09610  1.17394  0.003482  0.001394  0.013833     2.498
   0.81467  0.19713  0.09366  1.17091  0.003288  0.001329  0.015003     2.473
   0.82983  0.18221  0.09095  1.16575  0.003117  0.001269  0.016031     2.457
   0.84493  0.16741  0.08797  1.15841  0.002982  0.001212  0.016595     2.460
   0.85995  0.15275  0.08473  1.15095  0.002812  0.001150  0.017746     2.446
   0.87475  0.13836  0.08125  1.14128  0.002660  0.001089  0.018655     2.443
   0.88915  0.12444  0.07757  1.13069  0.002467  0.001023  0.020571     2.412
   0.90314  0.11101  0.07364  1.11531  0.002329  0.000966  0.021522     2.410
   0.91683  0.09797  0.06946  1.09818  0.002190  0.000908  0.022473     2.413
   0.92993  0.08560  0.06517  1.07980  0.002035  0.000845  0.023871     2.409
   0.94206  0.07425  0.06087  1.05874  0.001845  0.000780  0.026989     2.365
   0.95332  0.06387  0.05649  1.02938  0.001723  0.000730  0.028240     2.359
   0.96371  0.05444  0.05215  0.99812  0.001620  0.000682  0.028610     2.377
   0.97301  0.04611  0.04801  0.96820  0.001489  0.000627  0.030295     2.374
   0.98119  0.03891  0.04412  0.93564  0.001352  0.000574  0.032872     2.354
   0.98837  0.03273  0.04046  0.89767  0.001235  0.000528  0.035049     2.338
   0.99470  0.02743  0.03701  0.85474  0.001133  0.000488  0.036888     2.324
   1.00030  0.02288  0.03375  0.80764  0.001049  0.000452  0.037689     2.323
   1.00527  0.01898  0.03066  0.75633  0.000957  0.000417  0.039685     2.296
   1.00973  0.01561  0.02774  0.69888  0.000896  0.000388  0.038774     2.306
   1.01375  0.01272  0.02495  0.63728  0.000814  0.000358  0.040162     2.272
   1.01739  0.01024  0.02228  0.56598  0.000767  0.000338  0.037945     2.271
   1.02073  0.00811  0.01971  0.49089  0.000717  0.000317  0.035409     2.263
   1.02380  0.00630  0.01724  0.41038  0.000669  0.000295  0.031767     2.264
   1.02664  0.00476  0.01485  0.32129  0.000619  0.000277  0.027453     2.238
   1.02926  0.00350  0.01255  0.22510  0.000583  0.000258  0.020030     2.261
   1.03171  0.00246  0.01033  0.11742  0.000520  0.000233  0.012038     2.230
   1.03400  0.00163  0.00819  0.00264  0.000551  0.000247  0.000259     2.230
   1.03618  0.00098  0.00612 -0.09800  0.000551  0.000247  0.009487     2.230
   1.03826  0.00048  0.00410 -0.21613  0.000476  0.000216  0.024823     2.201
   1.04024  0.00015  0.00214 -0.37713  0.000403  0.000183  0.051343     2.198
   1.04215  0.00001  0.00024 -0.53287  0.000422  0.000186  0.065289     2.265
   1.04400  0.00012 -0.00161 -0.68582  0.000406  0.000184  0.092124     2.204
   1.04587  0.00052 -0.00343 -0.84578  0.000409  0.000183  0.109429     2.238
   1.04780  0.00123 -0.00524 -0.96793  0.000460  0.000199  0.104364     2.308
   1.04986  0.00223 -0.00703 -1.06818  0.000497  0.000217  0.108395     2.291
   1.05205  0.00354 -0.00879 -1.14572  0.000563  0.000240  0.097777     2.343
   1.05438  0.00514 -0.01048 -1.19563  0.000646  0.000270  0.084839     2.390
   1.05689  0.00705 -0.01212 -1.21911  0.000768  0.000311  0.066927     2.473
   1.05960  0.00924 -0.01371 -1.22960  0.000887  0.000353  0.056240     2.509
   1.06254  0.01171 -0.01530 -1.23770  0.000988  0.000394  0.050888     2.508
   1.06576  0.01450 -0.01689 -1.24332  0.001099  0.000436  0.045283     2.522
   1.06931  0.01766 -0.01852 -1.24652  0.001217  0.000479  0.040248     2.539
   1.07328  0.02125 -0.02021 -1.25034  0.001320  0.000522  0.037552     2.530
   1.07773  0.02534 -0.02197 -1.25545  0.001418  0.000564  0.035657     2.516
   1.08275  0.03002 -0.02380 -1.26011  0.001532  0.000608  0.033054     2.518
   1.08845  0.03539 -0.02569 -1.26489  0.001647  0.000655  0.030931     2.516
   1.09493  0.04158 -0.02763 -1.26818  0.001787  0.000707  0.028161     2.529
   1.10237  0.04875 -0.02960 -1.26893  0.001958  0.000766  0.024959     2.557
   1.11095  0.05710 -0.03158 -1.26482  0.002194  0.000839  0.020771     2.616
   1.12083  0.06678 -0.03358 -1.25861  0.002436  0.000919  0.017820     2.653
   1.13204  0.07781 -0.03556 -1.25207  0.002671  0.001002  0.015896     2.667
   1.14448  0.09010 -0.03747 -1.24439  0.002938  0.001091  0.013923     2.693
   1.15809  0.10359 -0.03926 -1.23697  0.003193  0.001182  0.012588     2.702
   1.17266  0.11806 -0.04096 -1.22978  0.003450  0.001273  0.011461     2.711
   1.18781  0.13314 -0.04249 -1.22478  0.003639  0.001355  0.011151     2.686
   1.20335  0.14862 -0.04385 -1.21991  0.003859  0.001437  0.010488     2.685
   1.21923  0.16445 -0.04503 -1.21568  0.004064  0.001516  0.009974     2.681
   1.23540  0.18059 -0.04604 -1.21123  0.004292  0.001595  0.009308     2.690
   1.25175  0.19691 -0.04691 -1.20802  0.004462  0.001667  0.009073     2.677
   1.26813  0.21328 -0.04763 -1.20531  0.004628  0.001735  0.008835     2.667
   1.28457  0.22971 -0.04819 -1.20230  0.004822  0.001805  0.008408     2.672
   1.30115  0.24629 -0.04860 -1.19960  0.005001  0.001872  0.008086     2.672
   1.31783  0.26296 -0.04890 -1.19677  0.005191  0.001939  0.007714     2.678
   1.33448  0.27961 -0.04908 -1.19445  0.005351  0.002001  0.007502     2.674
   1.35110  0.29624 -0.04912 -1.19223  0.005511  0.002061  0.007278     2.673
   1.36778  0.31291 -0.04903 -1.18951  0.005710  0.002125  0.006901     2.686
   1.38450  0.32963 -0.04882 -1.18700  0.005889  0.002187  0.006625     2.693
   1.40120  0.34633 -0.04849 -1.18424  0.006086  0.002250  0.006295     2.705
   1.41786  0.36298 -0.04803 -1.18131  0.006293  0.002313  0.005955     2.721
   1.43449  0.37961 -0.04745 -1.17816  0.006516  0.002377  0.005593     2.741
   1.45114  0.39623 -0.04673 -1.17458  0.006772  0.002444  0.005166     2.771
   1.46777  0.41285 -0.04588 -1.17054  0.007068  0.002515  0.004678     2.811
   1.48439  0.42943 -0.04489 -1.16635  0.007376  0.002586  0.004220     2.852
   1.50097  0.44597 -0.04378 -1.16166  0.007746  0.002662  0.003685     2.910
   1.51751  0.46247 -0.04253 -1.15666  0.008171  0.002740  0.003123     2.982
   1.53401  0.47892 -0.04112 -1.15139  0.008665  0.002821  0.002533     3.071
   1.55050  0.49532 -0.03957 -1.14591  0.009261  0.002905  0.001906     3.188
   1.56702  0.51176 -0.03785 -1.14047  0.009955  0.002989  0.001294     3.330
   1.58368  0.52831 -0.03597 -1.13522  0.010773  0.003071  0.000712     3.508
   1.60055  0.54506 -0.03395 -1.13038  0.011674  0.003149  0.000229     3.707
   1.61761  0.56199 -0.03181 -1.12600  0.012635  0.003221 -0.000139     3.923
   1.63483  0.57906 -0.02959 -1.12202  0.013641  0.003288 -0.000398     4.148
   1.65218  0.59626 -0.02732 -1.11835  0.014667  0.003353 -0.000563     4.374
   1.66962  0.61355 -0.02500 -1.11497  0.015696  0.003415 -0.000657     4.596
   1.68712  0.63090 -0.02268 -1.11190  0.016701  0.003474 -0.000702     4.807
   1.70462  0.64824 -0.02037 -1.10911  0.017673  0.003530 -0.000718     5.007
   1.72205  0.66552 -0.01809 -1.10655  0.018594  0.003583 -0.000717     5.190
   1.73939  0.68272 -0.01585 -1.10420  0.019469  0.003634 -0.000709     5.358
   1.75663  0.69982 -0.01367 -1.10201  0.020265  0.003683 -0.000698     5.503
   1.77378  0.71684 -0.01156 -1.09995  0.020979  0.003730 -0.000686     5.624
   1.79085  0.73379 -0.00953 -1.09799  0.021597  0.003777 -0.000674     5.718
   1.80784  0.75067 -0.00760 -1.09610  0.022120  0.003823 -0.000662     5.786
   1.82474  0.76746 -0.00576 -1.09426  0.022530  0.003869 -0.000652     5.823
   1.84154  0.78418 -0.00404 -1.09245  0.022822  0.003915 -0.000643     5.830
   1.85823  0.80079 -0.00245 -1.09066  0.022986  0.003960 -0.000635     5.804
   1.87481  0.81731 -0.00100 -1.08887  0.023011  0.004007 -0.000629     5.743
   1.89126  0.83371  0.00030 -1.08707  0.022884  0.004054 -0.000624     5.645
   1.90759  0.85000  0.00143 -1.08525  0.022596  0.004102 -0.000617     5.509
   1.92381  0.86619  0.00238 -1.08338  0.022138  0.004150 -0.000609     5.335
   1.93987  0.88223  0.00314 -1.08148  0.021515  0.004199 -0.000595     5.124
   1.95573  0.89808  0.00370 -1.07954  0.020717  0.004248 -0.000568     4.877
   1.97131  0.91366  0.00404 -1.07761  0.019744  0.004296 -0.000505     4.596
   1.98653  0.92887  0.00415 -1.07572  0.018594  0.004342 -0.000373     4.283
   2.00124  0.94358  0.00401 -1.07394  0.017284  0.004384 -0.000117     3.943
   2.01526  0.95760  0.00361 -1.07278  0.015848  0.004412  0.000326     3.592
   2.02837  0.97069  0.00296 -1.07319  0.014326  0.004407  0.001013     3.251
   2.04040  0.98268  0.00205 -1.07627  0.012783  0.004350  0.001984     2.938
   2.05125  0.99348  0.00090 -1.08277  0.011311  0.004238  0.003238     2.669
   2.05783  1.00000  0.00000 -1.07938  0.011928  0.004310  0.002706     2.768
   2.05783  1.00010 -0.00002  1.07938  0.133020  0.007171  0.000000    18.551
   2.06446  1.00660 -0.00133  1.07623  0.127518  0.007594  0.000000    16.791
   2.07221  1.01424 -0.00264  1.07274  0.124886  0.008055  0.000000    15.504
   2.08127  1.02319 -0.00401  1.06857  0.122248  0.008602  0.000000    14.211
   2.09186  1.03367 -0.00549  1.06354  0.119446  0.009257  0.000000    12.903
   2.10423  1.04594 -0.00708  1.05746  0.116307  0.010045  0.000000    11.579
   2.11869  1.06030 -0.00879  1.05007  0.112697  0.010997  0.000000    10.248
   2.13560  1.07711 -0.01064  1.04105  0.108476  0.012153  0.000000     8.926
   2.15535  1.09676 -0.01264  1.03003  0.103489  0.013557  0.000000     7.634
   2.17845  1.11975 -0.01480  1.01642  0.097569  0.015283  0.000000     6.384
   2.20544  1.14664 -0.01711  0.99909  0.090565  0.017471  0.000000     5.184
   2.23698  1.17809 -0.01958  0.97590  0.082396  0.020405  0.000000     4.038
   2.27386  1.21487 -0.02222  0.95062  0.072920  0.023612  0.000000     3.088
   2.31695  1.25788 -0.02501  0.93232  0.062463  0.025895  0.000000     2.412
   2.36732  1.30816 -0.02794  0.92407  0.052113  0.026875  0.000000     1.939
   2.42619  1.36695 -0.03100  0.92649  0.043094  0.026610  0.000000     1.619
   2.49501  1.43569 -0.03417  0.93625  0.036146  0.025649  0.000000     1.409
   2.57543  1.51605 -0.03742  0.94851  0.031240  0.024558  0.000000     1.272
   2.66944  1.61000 -0.04070  0.95996  0.027916  0.023625  0.000000     1.182
   2.77931  1.71982 -0.04396  0.96943  0.025686  0.022906  0.000000     1.121
   2.90773  1.84820 -0.04714  0.97685  0.024187  0.022371  0.000000     1.081
   3.05782  1.99827 -0.05017  0.98517  0.022979  0.021797  0.000000     1.054
