#    s        x        y     Ue/Vinf    Dstar     Theta      Cf       H
   0.00000  1.00000  0.00000  1.09627  0.135286  0.002709 -0.000264    49.930
   0.00668  0.99360  0.00192  1.09610  0.131906  0.002732 -0.000744    48.275
   0.01807  0.98272  0.00530  1.09605  0.128641  0.002743 -0.000742    46.898
   0.03106  0.97032  0.00914  1.09599  0.125059  0.002754 -0.000739    45.414
   0.04516  0.95680  0.01317  1.09594  0.121366  0.002764 -0.000737    43.916
   0.06006  0.94246  0.01720  1.09591  0.117672  0.002772 -0.000735    42.450
   0.07565  0.92739  0.02118  1.09589  0.114006  0.002779 -0.000734    41.026
   0.09186  0.91167  0.02516  1.09588  0.110323  0.002785 -0.000732    39.615
   0.10852  0.89549  0.02915  1.09587  0.106578  0.002791 -0.000731    38.187
   0.12544  0.87905  0.03313  1.09586  0.102786  0.002797 -0.000730    36.745
   0.14250  0.86245  0.03708  1.09584  0.098960  0.002804 -0.000729    35.290
   0.15964  0.84577  0.04099  1.09582  0.095109  0.002811 -0.000728    33.829
   0.17681  0.82904  0.04484  1.09579  0.091240  0.002819 -0.000726    32.363
   0.19398  0.81229  0.04864  1.09576  0.087359  0.002828 -0.000725    30.896
   0.21115  0.79553  0.05238  1.09571  0.083475  0.002836 -0.000723    29.432
   0.22833  0.77875  0.05606  1.09567  0.079579  0.002845 -0.000722    27.970
   0.24546  0.76200  0.05967  1.09561  0.075680  0.002855 -0.000721    26.512
   0.26249  0.74535  0.06319  1.09555  0.071809  0.002864 -0.000719    25.072
   0.27941  0.72877  0.06660  1.09549  0.067988  0.002873 -0.000718    23.662
   0.29629  0.71222  0.06990  1.09543  0.064219  0.002882 -0.000718    22.282
   0.31313  0.69568  0.07308  1.09538  0.060505  0.002890 -0.000717    20.935
   0.32994  0.67915  0.07616  1.09535  0.056853  0.002897 -0.000717    19.622
   0.34670  0.66266  0.07911  1.09532  0.053266  0.002904 -0.000718    18.344
   0.36339  0.64620  0.08193  1.09532  0.049763  0.002909 -0.000719    17.108
   0.38005  0.62976  0.08462  1.09536  0.046352  0.002912 -0.000721    15.917
   0.39672  0.61329  0.08718  1.09544  0.043029  0.002913 -0.000724    14.769
   0.41338  0.59681  0.08962  1.09557  0.039793  0.002913 -0.000728    13.663
   0.42997  0.58038  0.09191  1.09578  0.036649  0.002909 -0.000734    12.597
   0.44649  0.56400  0.09406  1.09609  0.033642  0.002903 -0.000742    11.590
   0.46301  0.54760  0.09605  1.09654  0.030749  0.002892 -0.000752    10.631
   0.47954  0.53117  0.09790  1.09715  0.027975  0.002878 -0.000765     9.721
   0.49603  0.51477  0.09961  1.09798  0.025313  0.002859 -0.000782     8.854
   0.51242  0.49845  0.10115  1.09909  0.022809  0.002834 -0.000805     8.048
   0.52875  0.48218  0.10252  1.10055  0.020466  0.002803 -0.000835     7.300
   0.54509  0.46588  0.10371  1.10248  0.018279  0.002766 -0.000875     6.610
   0.56144  0.44957  0.10475  1.10500  0.016246  0.002720 -0.000927     5.973
   0.57774  0.43329  0.10561  1.10824  0.014378  0.002665 -0.000970     5.394
   0.59394  0.41711  0.10630  1.11236  0.012691  0.002602 -0.000955     4.877
   0.61007  0.40098  0.10679  1.11748  0.011198  0.002529 -0.000786     4.427
   0.62617  0.38489  0.10708  1.12356  0.009878  0.002449 -0.000371     4.033
   0.64227  0.36879  0.10718  1.13064  0.008747  0.002361  0.000312     3.705
   0.65836  0.35270  0.10708  1.13884  0.007766  0.002263  0.001267     3.431
   0.67432  0.33674  0.10680  1.14786  0.006924  0.002159  0.002460     3.207
   0.69010  0.32097  0.10629  1.15715  0.006223  0.002054  0.003801     3.030
   0.70583  0.30526  0.10554  1.16577  0.005692  0.001954  0.005020     2.912
   0.72167  0.28945  0.10454  1.17382  0.005237  0.001858  0.006265     2.819
   0.73747  0.27369  0.10335  1.18123  0.004822  0.001764  0.007656     2.733
   0.75302  0.25820  0.10195  1.18757  0.004440  0.001674  0.009234     2.652
   0.76841  0.24291  0.10027  1.19149  0.004154  0.001596  0.010486     2.603
   0.78386  0.22758  0.09831  1.19344  0.003928  0.001525  0.011442     2.577
   0.79934  0.21226  0.09610  1.19453  0.003703  0.001453  0.012540     2.548
   0.81467  0.19713  0.09366  1.19435  0.003485  0.001384  0.013751     2.519
   0.82983  0.18221  0.09095  1.19231  0.003293  0.001318  0.014853     2.499
   0.84493  0.16741  0.08797  1.18839  0.003130  0.001256  0.015675     2.493
   0.85995  0.15275  0.08473  1.18371  0.002956  0.001191  0.016709     2.482
   0.87475  0.13836  0.08125  1.17777  0.002779  0.001125  0.017910     2.470
   0.88915  0.12444  0.07757  1.17041  0.002581  0.001057  0.019762     2.441
   0.90314  0.11101  0.07364  1.15907  0.002426  0.000997  0.020971     2.434
   0.91683  0.09797  0.06946  1.14565  0.002291  0.000937  0.021685     2.446
   0.92993  0.08560  0.06517  1.13236  0.002111  0.000869  0.023662     2.429
   0.94206  0.07425  0.06087  1.11546  0.001911  0.000803  0.027000     2.381
   0.95332  0.06387  0.05649  1.09055  0.001792  0.000752  0.028121     2.383
   0.96371  0.05444  0.05215  1.06494  0.001686  0.000701  0.028536     2.405
   0.97301  0.04611  0.04801  1.04110  0.001540  0.000644  0.030932     2.393
   0.98119  0.03891  0.04412  1.01384  0.001402  0.000590  0.033622     2.376
   0.98837  0.03273  0.04046  0.98252  0.001285  0.000543  0.035870     2.367
   0.99470  0.02743  0.03701  0.94676  0.001162  0.000499  0.039594     2.331
   1.00030  0.02288  0.03375  0.90440  0.001089  0.000464  0.039771     2.345
   1.00527  0.01898  0.03066  0.86146  0.000991  0.000427  0.042612     2.322
   1.00973  0.01561  0.02774  0.81089  0.000912  0.000396  0.044234     2.306
   1.01375  0.01272  0.02495  0.75350  0.000843  0.000369  0.045291     2.286
   1.01739  0.01024  0.02228  0.69253  0.000798  0.000345  0.042830     2.314
   1.02073  0.00811  0.01971  0.62619  0.000713  0.000317  0.045975     2.251
   1.02380  0.00630  0.01724  0.54815  0.000689  0.000300  0.040053     2.293
   1.02664  0.00476  0.01485  0.46563  0.000620  0.000279  0.040212     2.225
   1.02926  0.00350  0.01255  0.37354  0.000611  0.000268  0.031151     2.279
   1.03171  0.00246  0.01033  0.27822  0.000555  0.000252  0.027234     2.208
   1.03400  0.00163  0.00819  0.17609  0.000569  0.000252  0.016098     2.257
   1.03618  0.00098  0.00612  0.07392  0.000500  0.000224  0.007887     2.230
   1.03826  0.00048  0.00410 -0.04286  0.000500  0.000224  0.004575     2.230
   1.04024  0.00015  0.00214 -0.18243  0.000421  0.000190  0.023438     2.212
   1.04215  0.00001  0.00024 -0.32132  0.000447  0.000198  0.037209     2.262
   1.04400  0.00012 -0.00161 -0.48429  0.000386  0.000178  0.070444     2.170
   1.04587  0.00052 -0.00343 -0.64544  0.000415  0.000182  0.079118     2.283
   1.04780  0.00123 -0.00524 -0.76335  0.000464  0.000203  0.083304     2.285
   1.04986  0.00223 -0.00703 -0.87655  0.000486  0.000215  0.093953     2.257
   1.05205  0.00354 -0.00879 -0.96189  0.000560  0.000239  0.082790     2.339
   1.05438  0.00514 -0.01048 -1.02355  0.000625  0.000267  0.078647     2.343
   1.05689  0.00705 -0.01212 -1.06463  0.000724  0.000301  0.066675     2.401
   1.05960  0.00924 -0.01371 -1.08571  0.000848  0.000344  0.054469     2.464
   1.06254  0.01171 -0.01530 -1.10186  0.000945  0.000384  0.049962     2.457
   1.06576  0.01450 -0.01689 -1.11726  0.001035  0.000422  0.046543     2.451
   1.06931  0.01766 -0.01852 -1.12924  0.001145  0.000463  0.041723     2.470
   1.07328  0.02125 -0.02021 -1.14101  0.001240  0.000503  0.039193     2.463
   1.07773  0.02534 -0.02197 -1.15387  0.001328  0.000542  0.037504     2.450
   1.08275  0.03002 -0.02380 -1.16529  0.001438  0.000585  0.034627     2.460
   1.08845  0.03539 -0.02569 -1.17775  0.001534  0.000626  0.033197     2.449
   1.09493  0.04158 -0.02763 -1.18687  0.001676  0.000677  0.029743     2.476
   1.10237  0.04875 -0.02960 -1.19256  0.001843  0.000735  0.026296     2.507
   1.11095  0.05710 -0.03158 -1.19516  0.002035  0.000802  0.023082     2.538
   1.12083  0.06678 -0.03358 -1.19385  0.002272  0.000880  0.019672     2.582
   1.13204  0.07781 -0.03556 -1.19176  0.002493  0.000961  0.017628     2.595
   1.14448  0.09010 -0.03747 -1.18915  0.002720  0.001044  0.015945     2.605
   1.15809  0.10359 -0.03926 -1.18534  0.002974  0.001133  0.014205     2.625
   1.17266  0.11806 -0.04096 -1.18229  0.003194  0.001219  0.013244     2.621
   1.18781  0.13314 -0.04249 -1.18073  0.003376  0.001297  0.012783     2.603
   1.20335  0.14862 -0.04385 -1.17931  0.003570  0.001374  0.012126     2.599
   1.21923  0.16445 -0.04503 -1.17788  0.003767  0.001449  0.011468     2.600
   1.23540  0.18059 -0.04604 -1.17607  0.003975  0.001524  0.010750     2.608
   1.25175  0.19691 -0.04691 -1.17527  0.004134  0.001592  0.010462     2.597
   1.26813  0.21328 -0.04763 -1.17439  0.004303  0.001658  0.010065     2.595
   1.28457  0.22971 -0.04819 -1.17349  0.004473  0.001723  0.009668     2.596
   1.30115  0.24629 -0.04860 -1.17267  0.004636  0.001786  0.009323     2.596
   1.31783  0.26296 -0.04890 -1.17152  0.004813  0.001850  0.008904     2.602
   1.33448  0.27961 -0.04908 -1.17113  0.004943  0.001906  0.008755     2.593
   1.35110  0.29624 -0.04912 -1.17017  0.005108  0.001965  0.008408     2.599
   1.36778  0.31291 -0.04903 -1.16938  0.005258  0.002022  0.008152     2.600
   1.38450  0.32963 -0.04882 -1.16817  0.005430  0.002081  0.007803     2.610
   1.40120  0.34633 -0.04849 -1.16697  0.005592  0.002138  0.007515     2.616
   1.41786  0.36298 -0.04803 -1.16562  0.005758  0.002194  0.007222     2.624
   1.43449  0.37961 -0.04745 -1.16381  0.005948  0.002253  0.006853     2.640
   1.45114  0.39623 -0.04673 -1.16166  0.006152  0.002314  0.006466     2.659
   1.46777  0.41285 -0.04588 -1.15901  0.006384  0.002378  0.006022     2.685
   1.48439  0.42943 -0.04489 -1.15606  0.006628  0.002442  0.005584     2.714
   1.50097  0.44597 -0.04378 -1.15254  0.006913  0.002511  0.005081     2.753
   1.51751  0.46247 -0.04253 -1.14860  0.007231  0.002583  0.004555     2.800
   1.53401  0.47892 -0.04112 -1.14403  0.007617  0.002660  0.003947     2.864
   1.55050  0.49532 -0.03957 -1.13903  0.008065  0.002741  0.003310     2.942
   1.56702  0.51176 -0.03785 -1.13359  0.008607  0.002826  0.002624     3.045
   1.58368  0.52831 -0.03597 -1.12798  0.009240  0.002914  0.001942     3.171
   1.60055  0.54506 -0.03395 -1.12248  0.009944  0.003001  0.001326     3.314
   1.61761  0.56199 -0.03181 -1.11727  0.010699  0.003084  0.000803     3.469
   1.63483  0.57906 -0.02959 -1.11244  0.011485  0.003163  0.000384     3.631
   1.65218  0.59626 -0.02732 -1.10798  0.012288  0.003238  0.000061     3.795
   1.66962  0.61355 -0.02500 -1.10387  0.013088  0.003309 -0.000175     3.955
   1.68712  0.63090 -0.02268 -1.10005  0.013870  0.003377 -0.000341     4.107
   1.70462  0.64824 -0.02037 -1.09649  0.014616  0.003443 -0.000452     4.246
   1.72205  0.66552 -0.01809 -1.09314  0.015326  0.003506 -0.000524     4.371
   1.73939  0.68272 -0.01585 -1.09000  0.015986  0.003567 -0.000569     4.481
   1.75663  0.69982 -0.01367 -1.08706  0.016584  0.003627 -0.000595     4.573
   1.77378  0.71684 -0.01156 -1.08427  0.017109  0.003684 -0.000607     4.644
   1.79085  0.73379 -0.00953 -1.08162  0.017550  0.003740 -0.000609     4.692
   1.80784  0.75067 -0.00760 -1.07906  0.017906  0.003796 -0.000605     4.718
   1.82474  0.76746 -0.00576 -1.07660  0.018167  0.003850 -0.000596     4.719
   1.84154  0.78418 -0.00404 -1.07419  0.018327  0.003904 -0.000580     4.695
   1.85823  0.80079 -0.00245 -1.07184  0.018374  0.003957 -0.000558     4.643
   1.87481  0.81731 -0.00100 -1.06953  0.018303  0.004010 -0.000527     4.564
   1.89126  0.83371  0.00030 -1.06725  0.018101  0.004062 -0.000479     4.456
   1.90759  0.85000  0.00143 -1.06501  0.017762  0.004114 -0.000408     4.317
   1.92381  0.86619  0.00238 -1.06279  0.017282  0.004165 -0.000298     4.149
   1.93987  0.88223  0.00314 -1.06064  0.016665  0.004215 -0.000131     3.954
   1.95573  0.89808  0.00370 -1.05874  0.015910  0.004260  0.000121     3.735
   1.97131  0.91366  0.00404 -1.05739  0.015021  0.004292  0.000490     3.499
   1.98653  0.92887  0.00415 -1.05710  0.013997  0.004304  0.001019     3.252
   2.00124  0.94358  0.00401 -1.05862  0.012857  0.004281  0.001756     3.003
   2.01526  0.95760  0.00361 -1.06286  0.011630  0.004212  0.002756     2.761
   2.02837  0.97069  0.00296 -1.07095  0.010342  0.004086  0.004099     2.531
   2.04040  0.98268  0.00205 -1.08409  0.009036  0.003896  0.005895     2.319
   2.05125  0.99348  0.00090 -1.10364  0.007750  0.003644  0.008311     2.127
   2.05783  1.00000  0.00000 -1.09627  0.008356  0.003768  0.007079     2.217
   2.05783  1.00010 -0.00002  1.09627  0.143642  0.006478  0.000000    22.174
   2.06446  1.00660 -0.00133  1.09331  0.138587  0.006895  0.000000    20.099
   2.07221  1.01424 -0.00262  1.09002  0.136234  0.007353  0.000000    18.528
   2.08127  1.02319 -0.00398  1.08608  0.133882  0.007898  0.000000    16.951
   2.09186  1.03368 -0.00542  1.08133  0.131377  0.008552  0.000000    15.362
   2.10423  1.04596 -0.00696  1.07560  0.128553  0.009339  0.000000    13.765
   2.11869  1.06033 -0.00862  1.06864  0.125278  0.010291  0.000000    12.173
   2.13560  1.07714 -0.01040  1.06019  0.121411  0.011445  0.000000    10.608
   2.15535  1.09680 -0.01229  1.04989  0.116795  0.012849  0.000000     9.090
   2.17845  1.11981 -0.01431  1.03739  0.111239  0.014549  0.000000     7.646
   2.20544  1.14671 -0.01645  1.02179  0.104562  0.016664  0.000000     6.275
   2.23698  1.17818 -0.01870  1.00186  0.096576  0.019366  0.000000     4.987
   2.27386  1.21497 -0.02105  0.97487  0.087219  0.023054  0.000000     3.783
   2.31695  1.25800 -0.02347  0.94867  0.076322  0.026652  0.000000     2.864
   2.36732  1.30831 -0.02595  0.93155  0.064595  0.028952  0.000000     2.231
   2.42619  1.36713 -0.02843  0.92622  0.053467  0.029626  0.000000     1.805
   2.49501  1.43590 -0.03088  0.93148  0.044255  0.029019  0.000000     1.525
   2.57543  1.51629 -0.03322  0.94255  0.037471  0.027865  0.000000     1.345
   2.66944  1.61027 -0.03537  0.95463  0.032815  0.026723  0.000000     1.228
   2.77931  1.72013 -0.03723  0.96521  0.029701  0.025800  0.000000     1.151
   2.90773  1.84854 -0.03869  0.97369  0.027625  0.025105  0.000000     1.100
   3.05782  1.99863 -0.03959  0.98381  0.025927  0.024317  0.000000     1.066
