#    s        x        y     Ue/Vinf    Dstar     Theta      Cf       H
   0.00000  1.00000  0.00000  1.10785  0.144611  0.002618 -0.000270    55.228
   0.00668  0.99360  0.00192  1.10770  0.141250  0.002640 -0.000778    53.500
   0.01807  0.98272  0.00530  1.10765  0.137934  0.002650 -0.000775    52.055
   0.03106  0.97032  0.00914  1.10761  0.134281  0.002660 -0.000772    50.488
   0.04516  0.95680  0.01317  1.10757  0.130501  0.002669 -0.000770    48.901
   0.06006  0.94246  0.01720  1.10755  0.126707  0.002676 -0.000768    47.343
   0.07565  0.92739  0.02118  1.10754  0.122930  0.002683 -0.000767    45.825
   0.09186  0.91167  0.02516  1.10753  0.119127  0.002688 -0.000766    44.318
   0.10852  0.89549  0.02915  1.10753  0.115254  0.002694 -0.000764    42.788
   0.12544  0.87905  0.03313  1.10752  0.111327  0.002700 -0.000763    41.237
   0.14250  0.86245  0.03708  1.10751  0.107359  0.002706 -0.000762    39.670
   0.15964  0.84577  0.04099  1.10749  0.103361  0.002714 -0.000760    38.090
   0.17681  0.82904  0.04484  1.10746  0.099338  0.002721 -0.000759    36.501
   0.19398  0.81229  0.04864  1.10743  0.095300  0.002730 -0.000757    34.908
   0.21115  0.79553  0.05238  1.10739  0.091251  0.002739 -0.000755    33.315
   0.22833  0.77875  0.05606  1.10734  0.087187  0.002749 -0.000753    31.720
   0.24546  0.76200  0.05967  1.10728  0.083114  0.002759 -0.000751    30.127
   0.26249  0.74535  0.06319  1.10721  0.079063  0.002769 -0.000749    28.550
   0.27941  0.72877  0.06660  1.10714  0.075061  0.002780 -0.000747    27.003
   0.29629  0.71222  0.06990  1.10707  0.071102  0.002790 -0.000746    25.485
   0.31313  0.69568  0.07308  1.10700  0.067193  0.002800 -0.000745    23.999
   0.32994  0.67915  0.07616  1.10693  0.063342  0.002809 -0.000744    22.549
   0.34670  0.66266  0.07911  1.10687  0.059549  0.002818 -0.000743    21.132
   0.36339  0.64620  0.08193  1.10682  0.055838  0.002826 -0.000743    19.761
   0.38005  0.62976  0.08462  1.10679  0.052207  0.002832 -0.000743    18.433
   0.39672  0.61329  0.08718  1.10680  0.048662  0.002837 -0.000745    17.151
   0.41338  0.59681  0.08962  1.10683  0.045195  0.002841 -0.000747    15.910
   0.42997  0.58038  0.09191  1.10691  0.041822  0.002842 -0.000750    14.714
   0.44649  0.56400  0.09406  1.10705  0.038562  0.002841 -0.000755    13.572
   0.46301  0.54760  0.09605  1.10729  0.035422  0.002837 -0.000761    12.484
   0.47954  0.53117  0.09790  1.10763  0.032393  0.002830 -0.000770    11.446
   0.49603  0.51477  0.09961  1.10812  0.029463  0.002819 -0.000781    10.450
   0.51242  0.49845  0.10115  1.10880  0.026688  0.002804 -0.000796     9.518
   0.52875  0.48218  0.10252  1.10973  0.024064  0.002783 -0.000816     8.646
   0.54509  0.46588  0.10371  1.11099  0.021593  0.002757 -0.000842     7.833
   0.56144  0.44957  0.10475  1.11267  0.019261  0.002723 -0.000877     7.073
   0.57774  0.43329  0.10561  1.11488  0.017101  0.002682 -0.000925     6.376
   0.59394  0.41711  0.10630  1.11777  0.015109  0.002633 -0.000983     5.738
   0.61007  0.40098  0.10679  1.12151  0.013305  0.002575 -0.001010     5.168
   0.62617  0.38489  0.10708  1.12627  0.011696  0.002507 -0.000936     4.666
   0.64227  0.36879  0.10718  1.13215  0.010281  0.002429 -0.000647     4.233
   0.65836  0.35270  0.10708  1.13903  0.009034  0.002344 -0.000050     3.854
   0.67432  0.33674  0.10680  1.14710  0.007945  0.002249  0.000891     3.532
   0.69010  0.32097  0.10629  1.15615  0.007048  0.002147  0.002071     3.283
   0.70583  0.30526  0.10554  1.16563  0.006327  0.002043  0.003357     3.097
   0.72167  0.28945  0.10454  1.17490  0.005757  0.001940  0.004611     2.967
   0.73747  0.27369  0.10335  1.18414  0.005219  0.001838  0.006161     2.840
   0.75302  0.25820  0.10195  1.19228  0.004764  0.001741  0.007781     2.737
   0.76841  0.24291  0.10027  1.19838  0.004419  0.001654  0.009151     2.671
   0.78386  0.22758  0.09831  1.20256  0.004152  0.001576  0.010212     2.634
   0.79934  0.21226  0.09610  1.20594  0.003889  0.001499  0.011444     2.595
   0.81467  0.19713  0.09366  1.20801  0.003639  0.001424  0.012790     2.556
   0.82983  0.18221  0.09095  1.20803  0.003429  0.001354  0.013933     2.532
   0.84493  0.16741  0.08797  1.20642  0.003243  0.001287  0.014930     2.519
   0.85995  0.15275  0.08473  1.20370  0.003060  0.001220  0.015970     2.508
   0.87475  0.13836  0.08125  1.20002  0.002867  0.001151  0.017314     2.491
   0.88915  0.12444  0.07757  1.19467  0.002668  0.001082  0.019038     2.465
   0.90314  0.11101  0.07364  1.18611  0.002503  0.001019  0.020333     2.456
   0.91683  0.09797  0.06946  1.17557  0.002356  0.000956  0.021232     2.464
   0.92993  0.08560  0.06517  1.16495  0.002169  0.000887  0.023311     2.445
   0.94206  0.07425  0.06087  1.15096  0.001965  0.000820  0.026656     2.398
   0.95332  0.06387  0.05649  1.12953  0.001843  0.000767  0.027805     2.401
   0.96371  0.05444  0.05215  1.10768  0.001730  0.000714  0.028455     2.421
   0.97301  0.04611  0.04801  1.08740  0.001579  0.000656  0.030991     2.409
   0.98119  0.03891  0.04412  1.06416  0.001443  0.000601  0.033524     2.399
   0.98837  0.03273  0.04046  1.03737  0.001303  0.000550  0.037365     2.367
   0.99470  0.02743  0.03701  1.00419  0.001202  0.000509  0.039416     2.361
   1.00030  0.02288  0.03375  0.96810  0.001101  0.000470  0.042133     2.345
   1.00527  0.01898  0.03066  0.92744  0.001017  0.000435  0.043921     2.340
   1.00973  0.01561  0.02774  0.88213  0.000927  0.000401  0.047103     2.311
   1.01375  0.01272  0.02495  0.82925  0.000865  0.000375  0.047546     2.309
   1.01739  0.01024  0.02228  0.77272  0.000801  0.000348  0.048299     2.299
   1.02073  0.00811  0.01971  0.71018  0.000742  0.000324  0.048242     2.292
   1.02380  0.00630  0.01724  0.63955  0.000683  0.000301  0.048141     2.270
   1.02664  0.00476  0.01485  0.55717  0.000641  0.000286  0.045893     2.241
   1.02926  0.00350  0.01255  0.47165  0.000624  0.000275  0.038716     2.273
   1.03171  0.00246  0.01033  0.38462  0.000573  0.000256  0.035488     2.240
   1.03400  0.00163  0.00819  0.28630  0.000553  0.000247  0.027342     2.240
   1.03618  0.00098  0.00612  0.18496  0.000519  0.000231  0.018688     2.248
   1.03826  0.00048  0.00410  0.06949  0.000470  0.000211  0.007892     2.230
   1.04024  0.00015  0.00214 -0.05714  0.000470  0.000211  0.006493     2.230
   1.04215  0.00001  0.00024 -0.19530  0.000426  0.000192  0.024729     2.217
   1.04400  0.00012 -0.00161 -0.34318  0.000419  0.000188  0.043485     2.234
   1.04587  0.00052 -0.00343 -0.50224  0.000402  0.000182  0.067558     2.213
   1.04780  0.00123 -0.00524 -0.63785  0.000454  0.000198  0.070526     2.296
   1.04986  0.00223 -0.00703 -0.74678  0.000493  0.000217  0.077937     2.270
   1.05205  0.00354 -0.00879 -0.84165  0.000543  0.000237  0.077780     2.296
   1.05438  0.00514 -0.01048 -0.91541  0.000607  0.000261  0.073814     2.323
   1.05689  0.00705 -0.01212 -0.96008  0.000718  0.000299  0.060640     2.401
   1.05960  0.00924 -0.01371 -0.98947  0.000817  0.000338  0.054232     2.414
   1.06254  0.01171 -0.01530 -1.01566  0.000900  0.000374  0.051033     2.404
   1.06576  0.01450 -0.01689 -1.03459  0.001013  0.000415  0.044555     2.440
   1.06931  0.01766 -0.01852 -1.05306  0.001096  0.000452  0.042623     2.423
   1.07328  0.02125 -0.02021 -1.07042  0.001190  0.000491  0.039754     2.427
   1.07773  0.02534 -0.02197 -1.08729  0.001283  0.000529  0.037549     2.424
   1.08275  0.03002 -0.02380 -1.10428  0.001375  0.000568  0.035739     2.420
   1.08845  0.03539 -0.02569 -1.11942  0.001488  0.000612  0.033045     2.433
   1.09493  0.04158 -0.02763 -1.13273  0.001613  0.000660  0.030457     2.445
   1.10237  0.04875 -0.02960 -1.14350  0.001760  0.000714  0.027609     2.465
   1.11095  0.05710 -0.03158 -1.14840  0.001971  0.000783  0.023430     2.517
   1.12083  0.06678 -0.03358 -1.15099  0.002176  0.000857  0.020756     2.539
   1.13204  0.07781 -0.03556 -1.15195  0.002394  0.000936  0.018529     2.557
   1.14448  0.09010 -0.03747 -1.15239  0.002608  0.001018  0.016900     2.563
   1.15809  0.10359 -0.03926 -1.15146  0.002847  0.001104  0.015174     2.580
   1.17266  0.11806 -0.04096 -1.15100  0.003057  0.001186  0.014175     2.577
   1.18781  0.13314 -0.04249 -1.15140  0.003242  0.001264  0.013547     2.565
   1.20335  0.14862 -0.04385 -1.15220  0.003420  0.001337  0.012965     2.557
   1.21923  0.16445 -0.04503 -1.15238  0.003617  0.001411  0.012182     2.563
   1.23540  0.18059 -0.04604 -1.15221  0.003814  0.001484  0.011470     2.569
   1.25175  0.19691 -0.04691 -1.15270  0.003973  0.001551  0.011107     2.562
   1.26813  0.21328 -0.04763 -1.15342  0.004124  0.001614  0.010785     2.555
   1.28457  0.22971 -0.04819 -1.15364  0.004294  0.001678  0.010312     2.560
   1.30115  0.24629 -0.04860 -1.15387  0.004454  0.001739  0.009930     2.561
   1.31783  0.26296 -0.04890 -1.15401  0.004611  0.001799  0.009573     2.563
   1.33448  0.27961 -0.04908 -1.15454  0.004742  0.001855  0.009367     2.557
   1.35110  0.29624 -0.04912 -1.15454  0.004899  0.001912  0.009015     2.563
   1.36778  0.31291 -0.04903 -1.15460  0.005044  0.001967  0.008739     2.564
   1.38450  0.32963 -0.04882 -1.15434  0.005200  0.002023  0.008415     2.571
   1.40120  0.34633 -0.04849 -1.15401  0.005351  0.002077  0.008129     2.576
   1.41786  0.36298 -0.04803 -1.15358  0.005499  0.002131  0.007862     2.581
   1.43449  0.37961 -0.04745 -1.15254  0.005678  0.002188  0.007483     2.595
   1.45114  0.39623 -0.04673 -1.15124  0.005861  0.002245  0.007117     2.610
   1.46777  0.41285 -0.04588 -1.14933  0.006073  0.002306  0.006675     2.634
   1.48439  0.42943 -0.04489 -1.14714  0.006290  0.002367  0.006258     2.657
   1.50097  0.44597 -0.04378 -1.14439  0.006539  0.002432  0.005782     2.688
   1.51751  0.46247 -0.04253 -1.14109  0.006822  0.002501  0.005260     2.728
   1.53401  0.47892 -0.04112 -1.13715  0.007156  0.002574  0.004677     2.780
   1.55050  0.49532 -0.03957 -1.13258  0.007552  0.002652  0.004032     2.847
   1.56702  0.51176 -0.03785 -1.12744  0.008027  0.002736  0.003336     2.934
   1.58368  0.52831 -0.03597 -1.12192  0.008584  0.002824  0.002626     3.040
   1.60055  0.54506 -0.03395 -1.11634  0.009204  0.002912  0.001968     3.161
   1.61761  0.56199 -0.03181 -1.11093  0.009862  0.002999  0.001402     3.289
   1.63483  0.57906 -0.02959 -1.10578  0.010552  0.003082  0.000927     3.423
   1.65218  0.59626 -0.02732 -1.10097  0.011248  0.003162  0.000549     3.557
   1.66962  0.61355 -0.02500 -1.09647  0.011944  0.003239  0.000254     3.688
   1.68712  0.63090 -0.02268 -1.09229  0.012617  0.003312  0.000035     3.810
   1.70462  0.64824 -0.02037 -1.08837  0.013262  0.003382 -0.000126     3.922
   1.72205  0.66552 -0.01809 -1.08471  0.013866  0.003449 -0.000240     4.020
   1.73939  0.68272 -0.01585 -1.08125  0.014432  0.003514 -0.000321     4.106
   1.75663  0.69982 -0.01367 -1.07799  0.014935  0.003578 -0.000373     4.175
   1.77378  0.71684 -0.01156 -1.07488  0.015371  0.003639 -0.000403     4.223
   1.79085  0.73379 -0.00953 -1.07190  0.015733  0.003700 -0.000415     4.252
   1.80784  0.75067 -0.00760 -1.06905  0.016017  0.003759 -0.000413     4.261
   1.82474  0.76746 -0.00576 -1.06629  0.016215  0.003817 -0.000398     4.248
   1.84154  0.78418 -0.00404 -1.06362  0.016322  0.003874 -0.000367     4.213
   1.85823  0.80079 -0.00245 -1.06103  0.016327  0.003931 -0.000319     4.154
   1.87481  0.81731 -0.00100 -1.05851  0.016227  0.003986 -0.000248     4.071
   1.89126  0.83371  0.00030 -1.05608  0.016011  0.004040 -0.000145     3.963
   1.90759  0.85000  0.00143 -1.05379  0.015674  0.004092  0.000002     3.831
   1.92381  0.86619  0.00238 -1.05172  0.015213  0.004139  0.000209     3.676
   1.93987  0.88223  0.00314 -1.05005  0.014639  0.004178  0.000492     3.503
   1.95573  0.89808  0.00370 -1.04904  0.013947  0.004205  0.000878     3.317
   1.97131  0.91366  0.00404 -1.04910  0.013144  0.004212  0.001395     3.121
   1.98653  0.92887  0.00415 -1.05080  0.012228  0.004190  0.002086     2.919
   2.00124  0.94358  0.00401 -1.05487  0.011217  0.004129  0.003000     2.717
   2.01526  0.95760  0.00361 -1.06222  0.010131  0.004021  0.004204     2.520
   2.02837  0.97069  0.00296 -1.07399  0.008990  0.003857  0.005807     2.331
   2.04040  0.98268  0.00205 -1.09162  0.007822  0.003634  0.007972     2.152
   2.05125  0.99348  0.00090 -1.11722  0.006643  0.003347  0.011006     1.985
   2.05783  1.00000  0.00000 -1.10785  0.007247  0.003490  0.009303     2.076
   2.05783  1.00010 -0.00002  1.10785  0.151858  0.006109  0.000000    24.859
   2.06446  1.00660 -0.00133  1.10488  0.147019  0.006544  0.000000    22.466
   2.07221  1.01424 -0.00261  1.10156  0.144815  0.007025  0.000000    20.615
   2.08127  1.02320 -0.00395  1.09758  0.142617  0.007597  0.000000    18.772
   2.09186  1.03369 -0.00538  1.09281  0.140272  0.008284  0.000000    16.933
   2.10423  1.04597 -0.00689  1.08706  0.137619  0.009110  0.000000    15.107
   2.11869  1.06034 -0.00851  1.08013  0.134524  0.010106  0.000000    13.311
   2.13560  1.07716 -0.01024  1.07173  0.130846  0.011311  0.000000    11.568
   2.15535  1.09683 -0.01207  1.06156  0.126425  0.012771  0.000000     9.899
   2.17845  1.11984 -0.01400  1.04930  0.121064  0.014531  0.000000     8.332
   2.20544  1.14675 -0.01603  1.03416  0.114570  0.016705  0.000000     6.859
   2.23698  1.17823 -0.01813  1.01514  0.106725  0.019442  0.000000     5.489
   2.27386  1.21504 -0.02030  0.99018  0.097388  0.023059  0.000000     4.223
   2.31695  1.25808 -0.02249  0.96004  0.086453  0.027488  0.000000     3.145
   2.36732  1.30840 -0.02467  0.93819  0.074121  0.030686  0.000000     2.415
   2.42619  1.36724 -0.02678  0.92795  0.061815  0.032122  0.000000     1.924
   2.49501  1.43602 -0.02876  0.92954  0.051108  0.031915  0.000000     1.601
   2.57543  1.51643 -0.03052  0.93899  0.042912  0.030807  0.000000     1.393
   2.66944  1.61042 -0.03195  0.95101  0.037170  0.029531  0.000000     1.259
   2.77931  1.72029 -0.03291  0.96219  0.033308  0.028443  0.000000     1.171
   2.90773  1.84870 -0.03326  0.97137  0.030734  0.027606  0.000000     1.113
   3.05782  1.99880 -0.03281  0.98293  0.028591  0.026615  0.000000     1.074
