#    s        x        y     Ue/Vinf    Dstar     Theta      Cf       H
   0.00000  1.00000  0.00000  1.07157  0.113831  0.003931 -0.000253    28.954
   0.00667  0.99364  0.00201  1.07137  0.110355  0.003957 -0.000762    27.890
   0.01801  0.98283  0.00544  1.07130  0.107203  0.003967 -0.000760    27.022
   0.03089  0.97055  0.00931  1.07125  0.103803  0.003977 -0.000759    26.100
   0.04491  0.95712  0.01335  1.07122  0.100340  0.003985 -0.000758    25.179
   0.05974  0.94286  0.01740  1.07121  0.096908  0.003991 -0.000758    24.282
   0.07527  0.92786  0.02141  1.07123  0.093533  0.003994 -0.000758    23.416
   0.09142  0.91220  0.02541  1.07126  0.090164  0.003996 -0.000759    22.562
   0.10802  0.89609  0.02942  1.07131  0.086764  0.003997 -0.000760    21.705
   0.12488  0.87971  0.03341  1.07137  0.083339  0.003998 -0.000761    20.844
   0.14188  0.86318  0.03738  1.07143  0.079898  0.003998 -0.000762    19.982
   0.15896  0.84656  0.04130  1.07150  0.076449  0.003998 -0.000763    19.120
   0.17607  0.82989  0.04517  1.07158  0.072998  0.003998 -0.000765    18.259
   0.19318  0.81321  0.04899  1.07167  0.069554  0.003997 -0.000767    17.401
   0.21029  0.79652  0.05273  1.07178  0.066124  0.003995 -0.000770    16.550
   0.22743  0.77978  0.05643  1.07190  0.062700  0.003993 -0.000773    15.702
   0.24453  0.76308  0.06007  1.07204  0.059279  0.003990 -0.000776    14.858
   0.26151  0.74647  0.06361  1.07220  0.055902  0.003985 -0.000780    14.027
   0.27839  0.72994  0.06704  1.07241  0.052591  0.003979 -0.000785    13.216
   0.29522  0.71344  0.07036  1.07266  0.049344  0.003971 -0.000791    12.426
   0.31203  0.69694  0.07357  1.07298  0.046168  0.003960 -0.000798    11.658
   0.32881  0.68046  0.07667  1.07338  0.043070  0.003947 -0.000807    10.913
   0.34552  0.66401  0.07965  1.07387  0.040056  0.003930 -0.000817    10.192
   0.36216  0.64761  0.08250  1.07448  0.037145  0.003910 -0.000830     9.501
   0.37877  0.63123  0.08521  1.07523  0.034344  0.003885 -0.000846     8.840
   0.39539  0.61480  0.08779  1.07618  0.031660  0.003855 -0.000865     8.212
   0.41202  0.59836  0.09025  1.07734  0.029068  0.003821 -0.000890     7.608
   0.42857  0.58198  0.09257  1.07876  0.026602  0.003780 -0.000920     7.037
   0.44503  0.56566  0.09473  1.08050  0.024276  0.003734 -0.000959     6.502
   0.46148  0.54933  0.09674  1.08265  0.022100  0.003680 -0.001005     6.005
   0.47798  0.53293  0.09860  1.08528  0.020062  0.003618 -0.001049     5.544
   0.49446  0.51655  0.10033  1.08847  0.018145  0.003549 -0.001063     5.113
   0.51082  0.50026  0.10190  1.09229  0.016379  0.003471 -0.001006     4.719
   0.52710  0.48404  0.10328  1.09680  0.014796  0.003385 -0.000818     4.371
   0.54339  0.46779  0.10449  1.10195  0.013373  0.003292 -0.000455     4.062
   0.55971  0.45151  0.10554  1.10779  0.012097  0.003192  0.000105     3.790
   0.57600  0.43525  0.10643  1.11438  0.010944  0.003083  0.000882     3.550
   0.59218  0.41907  0.10713  1.12163  0.009943  0.002968  0.001819     3.350
   0.60829  0.40298  0.10765  1.12932  0.009066  0.002848  0.002904     3.183
   0.62434  0.38693  0.10796  1.13706  0.008334  0.002729  0.004020     3.054
   0.64042  0.37085  0.10808  1.14472  0.007690  0.002611  0.005214     2.945
   0.65651  0.35476  0.10800  1.15202  0.007126  0.002496  0.006451     2.855
   0.67249  0.33878  0.10774  1.15890  0.006605  0.002384  0.007834     2.771
   0.68825  0.32303  0.10727  1.16484  0.006150  0.002277  0.009248     2.700
   0.70393  0.30737  0.10654  1.16935  0.005782  0.002181  0.010474     2.652
   0.71975  0.29158  0.10557  1.17248  0.005484  0.002091  0.011456     2.623
   0.73559  0.27578  0.10439  1.17533  0.005160  0.001998  0.012787     2.582
   0.75115  0.26028  0.10302  1.17721  0.004835  0.001908  0.014416     2.534
   0.76650  0.24502  0.10139  1.17672  0.004578  0.001828  0.015715     2.505
   0.78192  0.22972  0.09944  1.17396  0.004390  0.001757  0.016451     2.499
   0.79744  0.21436  0.09725  1.17094  0.004171  0.001681  0.017589     2.482
   0.81279  0.19920  0.09484  1.16677  0.003942  0.001604  0.019019     2.457
   0.82793  0.18429  0.09217  1.16026  0.003752  0.001534  0.020111     2.446
   0.84302  0.16950  0.08922  1.15217  0.003567  0.001464  0.021193     2.437
   0.85806  0.15481  0.08599  1.14228  0.003407  0.001395  0.021906     2.441
   0.87291  0.14036  0.08253  1.13208  0.003205  0.001319  0.023370     2.429
   0.88737  0.12638  0.07886  1.11971  0.002991  0.001243  0.025329     2.407
   0.90140  0.11290  0.07496  1.10349  0.002803  0.001172  0.027025     2.392
   0.91519  0.09977  0.07076  1.08369  0.002662  0.001105  0.027491     2.409
   0.92848  0.08721  0.06643  1.06408  0.002464  0.001027  0.029443     2.399
   0.94079  0.07568  0.06209  1.04076  0.002236  0.000949  0.033102     2.356
   0.95221  0.06515  0.05767  1.00883  0.002082  0.000889  0.034889     2.343
   0.96284  0.05550  0.05322  0.97374  0.001972  0.000833  0.034736     2.367
   0.97241  0.04692  0.04898  0.94131  0.001820  0.000767  0.036142     2.374
   0.98081  0.03952  0.04501  0.90697  0.001637  0.000698  0.039869     2.344
   0.98816  0.03319  0.04127  0.86576  0.001503  0.000643  0.041687     2.338
   0.99463  0.02777  0.03774  0.82020  0.001366  0.000591  0.044510     2.312
   1.00034  0.02313  0.03441  0.76895  0.001271  0.000548  0.044522     2.320
   1.00542  0.01915  0.03125  0.71374  0.001151  0.000504  0.047273     2.283
   1.00996  0.01574  0.02825  0.65087  0.001084  0.000472  0.045076     2.299
   1.01405  0.01281  0.02541  0.58538  0.000988  0.000435  0.045659     2.271
   1.01775  0.01030  0.02269  0.51054  0.000924  0.000408  0.042783     2.266
   1.02112  0.00816  0.02007  0.43131  0.000860  0.000379  0.038747     2.268
   1.02423  0.00634  0.01756  0.34155  0.000799  0.000360  0.034531     2.218
   1.02710  0.00481  0.01513  0.24985  0.000781  0.000342  0.024383     2.282
   1.02975  0.00353  0.01281  0.15145  0.000673  0.000302  0.018085     2.224
   1.03221  0.00250  0.01057  0.03999  0.000701  0.000314  0.004562     2.230
   1.03452  0.00166  0.00842 -0.05891  0.000701  0.000314  0.006723     2.230
   1.03670  0.00100  0.00634 -0.17048  0.000615  0.000278  0.022575     2.210
   1.03878  0.00049  0.00433 -0.31005  0.000546  0.000247  0.046183     2.211
   1.04077  0.00014  0.00237 -0.45549  0.000539  0.000241  0.067339     2.234
   1.04268 -0.00001  0.00047 -0.60987  0.000506  0.000230  0.098854     2.201
   1.04452  0.00009 -0.00138 -0.78348  0.000478  0.000217  0.133737     2.207
   1.04638  0.00049 -0.00318 -0.94263  0.000499  0.000221  0.147235     2.258
   1.04830  0.00119 -0.00498 -1.06685  0.000550  0.000240  0.145903     2.297
   1.05035  0.00220 -0.00676 -1.15628  0.000626  0.000268  0.133579     2.339
   1.05254  0.00351 -0.00851 -1.22217  0.000705  0.000299  0.123250     2.357
   1.05487  0.00512 -0.01021 -1.26825  0.000802  0.000335  0.108339     2.395
   1.05738  0.00701 -0.01184 -1.29388  0.000930  0.000379  0.089682     2.455
   1.06008  0.00920 -0.01343 -1.30348  0.001083  0.000430  0.072403     2.519
   1.06301  0.01168 -0.01499 -1.30840  0.001218  0.000481  0.063713     2.533
   1.06622  0.01448 -0.01656 -1.30820  0.001379  0.000536  0.053815     2.573
   1.06978  0.01766 -0.01815 -1.30658  0.001531  0.000592  0.047731     2.586
   1.07377  0.02129 -0.01981 -1.30467  0.001682  0.000649  0.043161     2.590
   1.07825  0.02543 -0.02154 -1.30463  0.001812  0.000705  0.040919     2.571
   1.08332  0.03017 -0.02333 -1.30427  0.001966  0.000764  0.037612     2.573
   1.08907  0.03561 -0.02519 -1.30445  0.002119  0.000825  0.035137     2.568
   1.09564  0.04190 -0.02708 -1.30415  0.002292  0.000891  0.032299     2.572
   1.10320  0.04922 -0.02900 -1.29992  0.002544  0.000972  0.027502     2.619
   1.11196  0.05776 -0.03093 -1.29295  0.002831  0.001063  0.023331     2.663
   1.12207  0.06768 -0.03288 -1.28396  0.003150  0.001165  0.019831     2.704
   1.13350  0.07895 -0.03481 -1.27496  0.003453  0.001271  0.017640     2.718
   1.14613  0.09144 -0.03664 -1.26544  0.003788  0.001382  0.015524     2.740
   1.15994  0.10515 -0.03835 -1.25524  0.004158  0.001501  0.013496     2.770
   1.17469  0.11981 -0.03996 -1.24688  0.004447  0.001612  0.012729     2.759
   1.18993  0.13498 -0.04141 -1.23981  0.004719  0.001718  0.012117     2.746
   1.20552  0.15051 -0.04267 -1.23356  0.004987  0.001821  0.011507     2.739
   1.22143  0.16639 -0.04375 -1.22754  0.005275  0.001923  0.010769     2.743
   1.23764  0.18258 -0.04467 -1.22205  0.005547  0.002021  0.010184     2.744
   1.25400  0.19892 -0.04546 -1.21742  0.005781  0.002113  0.009842     2.736
   1.27036  0.21526 -0.04609 -1.21321  0.006014  0.002202  0.009483     2.731
   1.28677  0.23166 -0.04656 -1.20918  0.006254  0.002289  0.009079     2.732
   1.30335  0.24824 -0.04689 -1.20505  0.006515  0.002378  0.008591     2.740
   1.32002  0.26491 -0.04711 -1.20148  0.006736  0.002460  0.008311     2.738
   1.33663  0.28153 -0.04721 -1.19795  0.006969  0.002542  0.007973     2.742
   1.35321  0.29810 -0.04717 -1.19443  0.007211  0.002623  0.007611     2.749
   1.36986  0.31475 -0.04699 -1.19082  0.007468  0.002705  0.007215     2.761
   1.38656  0.33145 -0.04670 -1.18707  0.007742  0.002788  0.006793     2.777
   1.40323  0.34811 -0.04629 -1.18338  0.008010  0.002869  0.006419     2.792
   1.41985  0.36473 -0.04576 -1.17947  0.008309  0.002952  0.005983     2.815
   1.43647  0.38133 -0.04510 -1.17533  0.008640  0.003037  0.005506     2.845
   1.45309  0.39793 -0.04431 -1.17093  0.009008  0.003125  0.004988     2.882
   1.46972  0.41453 -0.04339 -1.16627  0.009421  0.003216  0.004435     2.930
   1.48633  0.43111 -0.04234 -1.16144  0.009876  0.003308  0.003871     2.985
   1.50291  0.44765 -0.04116 -1.15643  0.010386  0.003403  0.003290     3.052
   1.51945  0.46414 -0.03985 -1.15126  0.010980  0.003501  0.002670     3.137
   1.53596  0.48059 -0.03840 -1.14610  0.011634  0.003598  0.002074     3.234
   1.55247  0.49701 -0.03680 -1.14095  0.012411  0.003696  0.001454     3.358
   1.56903  0.51348 -0.03504 -1.13599  0.013288  0.003792  0.000876     3.504
   1.58574  0.53008 -0.03313 -1.13132  0.014276  0.003884  0.000358     3.676
   1.60264  0.54687 -0.03109 -1.12701  0.015351  0.003972 -0.000065     3.865
   1.61973  0.56382 -0.02896 -1.12305  0.016475  0.004054 -0.000378     4.063
   1.63695  0.58089 -0.02675 -1.11939  0.017633  0.004133 -0.000596     4.266
   1.65426  0.59806 -0.02449 -1.11597  0.018808  0.004210 -0.000733     4.468
   1.67164  0.61529 -0.02221 -1.11284  0.019965  0.004283 -0.000811     4.662
   1.68905  0.63255 -0.01994 -1.10996  0.021097  0.004352 -0.000848     4.847
   1.70644  0.64979 -0.01769 -1.10732  0.022187  0.004419 -0.000860     5.021
   1.72377  0.66698 -0.01547 -1.10487  0.023220  0.004483 -0.000858     5.180
   1.74101  0.68409 -0.01330 -1.10260  0.024194  0.004544 -0.000849     5.325
   1.75815  0.70109 -0.01119 -1.10048  0.025089  0.004603 -0.000837     5.451
   1.77520  0.71802 -0.00917 -1.09847  0.025889  0.004661 -0.000824     5.555
   1.79217  0.73488 -0.00723 -1.09654  0.026593  0.004717 -0.000811     5.637
   1.80907  0.75168 -0.00538 -1.09469  0.027189  0.004773 -0.000798     5.696
   1.82588  0.76841 -0.00365 -1.09289  0.027677  0.004829 -0.000786     5.732
   1.84259  0.78504 -0.00203 -1.09112  0.028033  0.004884 -0.000776     5.740
   1.85920  0.80157 -0.00054 -1.08938  0.028262  0.004939 -0.000767     5.722
   1.87568  0.81800  0.00080 -1.08764  0.028340  0.004995 -0.000759     5.674
   1.89204  0.83432  0.00198 -1.08591  0.028264  0.005051 -0.000751     5.596
   1.90829  0.85054  0.00299 -1.08415  0.028016  0.005108 -0.000743     5.485
   1.92442  0.86665  0.00381 -1.08238  0.027593  0.005165 -0.000733     5.342
   1.94041  0.88262  0.00443 -1.08057  0.026995  0.005223 -0.000720     5.169
   1.95619  0.89840  0.00486 -1.07875  0.026216  0.005281 -0.000696     4.964
   1.97170  0.91391  0.00506 -1.07691  0.025250  0.005338 -0.000647     4.730
   1.98685  0.92905  0.00502 -1.07511  0.024097  0.005394 -0.000551     4.468
   2.00150  0.94370  0.00473 -1.07337  0.022769  0.005446 -0.000371     4.181
   2.01546  0.95766  0.00418 -1.07179  0.021296  0.005493 -0.000059     3.877
   2.02853  0.97070  0.00337 -1.07085  0.019712  0.005522  0.000434     3.570
   2.04056  0.98268  0.00230 -1.07114  0.018082  0.005518  0.001137     3.277
   2.05143  0.99347  0.00100 -1.07321  0.016494  0.005471  0.002044     3.015
   2.05803  1.00000  0.00000 -1.07157  0.017023  0.005519  0.001760     3.085
   2.05803  1.00010 -0.00002  1.07157  0.130854  0.009450  0.000000    13.847
   2.06467  1.00659 -0.00142  1.06841  0.125424  0.009886  0.000000    12.687
   2.07243  1.01422 -0.00281  1.06492  0.122811  0.010359  0.000000    11.856
   2.08150  1.02317 -0.00428  1.06076  0.120193  0.010918  0.000000    11.009
   2.09210  1.03365 -0.00586  1.05578  0.117413  0.011583  0.000000    10.137
   2.10448  1.04591 -0.00756  1.04978  0.114308  0.012380  0.000000     9.233
   2.11896  1.06027 -0.00941  1.04252  0.110748  0.013341  0.000000     8.302
   2.13587  1.07707 -0.01141  1.03367  0.106606  0.014506  0.000000     7.349
   2.15564  1.09672 -0.01358  1.02278  0.101746  0.015934  0.000000     6.385
   2.17875  1.11971 -0.01593  1.00914  0.096034  0.017718  0.000000     5.420
   2.20575  1.14659 -0.01848  0.99135  0.089378  0.020044  0.000000     4.459
   2.23731  1.17803 -0.02122  0.97100  0.081604  0.022713  0.000000     3.593
   2.27420  1.21480 -0.02417  0.95262  0.072691  0.025107  0.000000     2.895
   2.31730  1.25779 -0.02733  0.93851  0.063082  0.026898  0.000000     2.345
   2.36768  1.30805 -0.03070  0.93168  0.053555  0.027723  0.000000     1.932
   2.42656  1.36682 -0.03428  0.93312  0.045059  0.027563  0.000000     1.635
   2.49537  1.43553 -0.03806  0.94087  0.038267  0.026769  0.000000     1.430
   2.57580  1.51586 -0.04203  0.95134  0.033283  0.025792  0.000000     1.290
   2.66978  1.60975 -0.04617  0.96164  0.029797  0.024907  0.000000     1.196
   2.77963  1.71951 -0.05046  0.97043  0.027404  0.024200  0.000000     1.132
   2.90801  1.84782 -0.05486  0.97749  0.025770  0.023661  0.000000     1.089
   3.05804  1.99778 -0.05935  0.98588  0.024421  0.023047  0.000000     1.060
