#    s        x        y     Ue/Vinf    Dstar     Theta      Cf       H
   0.00000  1.00000  0.00000  1.11022  0.149174  0.003495 -0.000271    42.679
   0.00667  0.99364  0.00201  1.11009  0.145779  0.003517 -0.000881    41.452
   0.01801  0.98283  0.00544  1.11005  0.142389  0.003526 -0.000879    40.383
   0.03089  0.97055  0.00931  1.11001  0.138663  0.003535 -0.000877    39.223
   0.04491  0.95712  0.01335  1.10999  0.134806  0.003543 -0.000875    38.044
   0.05974  0.94286  0.01740  1.10998  0.130928  0.003550 -0.000874    36.882
   0.07527  0.92786  0.02141  1.10998  0.127064  0.003555 -0.000873    35.745
   0.09142  0.91220  0.02541  1.11000  0.123167  0.003559 -0.000873    34.611
   0.10802  0.89609  0.02942  1.11002  0.119206  0.003562 -0.000873    33.462
   0.12488  0.87971  0.03341  1.11004  0.115194  0.003566 -0.000872    32.301
   0.14188  0.86318  0.03738  1.11005  0.111143  0.003571 -0.000872    31.127
   0.15896  0.84656  0.04130  1.11007  0.107059  0.003575 -0.000872    29.944
   0.17607  0.82989  0.04517  1.11008  0.102955  0.003580 -0.000871    28.756
   0.19318  0.81321  0.04899  1.11008  0.098839  0.003586 -0.000871    27.564
   0.21029  0.79652  0.05273  1.11009  0.094715  0.003591 -0.000871    26.373
   0.22743  0.77978  0.05643  1.11009  0.090577  0.003597 -0.000870    25.179
   0.24453  0.76308  0.06007  1.11009  0.086424  0.003604 -0.000870    23.983
   0.26151  0.74647  0.06361  1.11008  0.082295  0.003610 -0.000870    22.798
   0.27839  0.72994  0.06704  1.11008  0.078214  0.003616 -0.000870    21.632
   0.29522  0.71344  0.07036  1.11009  0.074180  0.003621 -0.000871    20.486
   0.31203  0.69694  0.07357  1.11011  0.070196  0.003625 -0.000872    19.362
   0.32881  0.68046  0.07667  1.11015  0.066266  0.003629 -0.000873    18.260
   0.34552  0.66401  0.07965  1.11020  0.062400  0.003632 -0.000875    17.183
   0.36216  0.64761  0.08250  1.11028  0.058615  0.003632 -0.000878    16.136
   0.37877  0.63123  0.08521  1.11040  0.054922  0.003632 -0.000882    15.124
   0.39539  0.61480  0.08779  1.11057  0.051312  0.003628 -0.000887    14.142
   0.41202  0.59836  0.09025  1.11079  0.047778  0.003623 -0.000893    13.188
   0.42857  0.58198  0.09257  1.11109  0.044342  0.003615 -0.000901    12.267
   0.44503  0.56566  0.09473  1.11148  0.041026  0.003603 -0.000911    11.386
   0.46148  0.54933  0.09674  1.11199  0.037839  0.003588 -0.000923    10.546
   0.47798  0.53293  0.09860  1.11266  0.034759  0.003568 -0.000938     9.742
   0.49446  0.51655  0.10033  1.11352  0.031784  0.003543 -0.000958     8.970
   0.51082  0.50026  0.10190  1.11460  0.028950  0.003513 -0.000983     8.240
   0.52710  0.48404  0.10328  1.11598  0.026279  0.003477 -0.001014     7.558
   0.54339  0.46779  0.10449  1.11774  0.023770  0.003433 -0.001055     6.923
   0.55971  0.45151  0.10554  1.11996  0.021405  0.003382 -0.001108     6.329
   0.57600  0.43525  0.10643  1.12275  0.019179  0.003322 -0.001171     5.772
   0.59218  0.41907  0.10713  1.12623  0.017142  0.003254 -0.001209     5.269
   0.60829  0.40298  0.10765  1.13053  0.015283  0.003175 -0.001174     4.813
   0.62434  0.38693  0.10796  1.13575  0.013610  0.003086 -0.000966     4.410
   0.64042  0.37085  0.10808  1.14186  0.012125  0.002989 -0.000508     4.056
   0.65651  0.35476  0.10800  1.14891  0.010810  0.002884  0.000248     3.748
   0.67249  0.33878  0.10774  1.15698  0.009628  0.002768  0.001348     3.478
   0.68825  0.32303  0.10727  1.16582  0.008626  0.002646  0.002692     3.260
   0.70393  0.30737  0.10654  1.17493  0.007814  0.002523  0.004110     3.097
   0.71975  0.29158  0.10557  1.18399  0.007135  0.002400  0.005569     2.973
   0.73559  0.27578  0.10439  1.19288  0.006519  0.002278  0.007235     2.861
   0.75115  0.26028  0.10302  1.20114  0.005961  0.002160  0.009135     2.759
   0.76650  0.24502  0.10139  1.20757  0.005531  0.002055  0.010771     2.692
   0.78192  0.22972  0.09944  1.21227  0.005194  0.001958  0.012072     2.653
   0.79744  0.21436  0.09725  1.21613  0.004873  0.001863  0.013482     2.616
   0.81279  0.19920  0.09484  1.21911  0.004549  0.001768  0.015205     2.573
   0.82793  0.18429  0.09217  1.21995  0.004284  0.001682  0.016623     2.547
   0.84302  0.16950  0.08922  1.21925  0.004046  0.001599  0.017900     2.531
   0.85806  0.15481  0.08599  1.21731  0.003823  0.001516  0.019118     2.521
   0.87291  0.14036  0.08253  1.21458  0.003588  0.001431  0.020649     2.507
   0.88737  0.12638  0.07886  1.21078  0.003321  0.001343  0.023068     2.472
   0.90140  0.11290  0.07496  1.20321  0.003107  0.001264  0.024890     2.457
   0.91519  0.09977  0.07076  1.19292  0.002946  0.001190  0.025537     2.475
   0.92848  0.08721  0.06643  1.18375  0.002710  0.001104  0.028136     2.455
   0.94079  0.07568  0.06209  1.17134  0.002450  0.001019  0.032410     2.405
   0.95221  0.06515  0.05767  1.15119  0.002292  0.000953  0.034077     2.404
   0.96284  0.05550  0.05322  1.12994  0.002159  0.000889  0.034637     2.429
   0.97241  0.04692  0.04898  1.11110  0.001981  0.000816  0.037097     2.429
   0.98081  0.03952  0.04501  1.09049  0.001778  0.000743  0.042089     2.393
   0.98816  0.03319  0.04127  1.06352  0.001635  0.000684  0.044685     2.391
   0.99463  0.02777  0.03774  1.03404  0.001478  0.000626  0.049510     2.361
   1.00034  0.02313  0.03441  0.99759  0.001357  0.000578  0.052823     2.346
   1.00542  0.01915  0.03125  0.95662  0.001252  0.000536  0.055334     2.337
   1.00996  0.01574  0.02825  0.91158  0.001153  0.000496  0.057978     2.324
   1.01405  0.01281  0.02541  0.86178  0.001068  0.000460  0.059346     2.321
   1.01775  0.01030  0.02269  0.80584  0.000973  0.000425  0.062813     2.288
   1.02112  0.00816  0.02007  0.73926  0.000912  0.000400  0.062194     2.276
   1.02423  0.00634  0.01756  0.66892  0.000862  0.000377  0.058845     2.288
   1.02710  0.00481  0.01513  0.59460  0.000793  0.000350  0.057923     2.268
   1.02975  0.00353  0.01281  0.50863  0.000744  0.000332  0.053963     2.244
   1.03221  0.00250  0.01057  0.41575  0.000723  0.000323  0.045706     2.237
   1.03452  0.00166  0.00842  0.32663  0.000686  0.000300  0.036133     2.288
   1.03670  0.00100  0.00634  0.22338  0.000600  0.000270  0.030096     2.218
   1.03878  0.00049  0.00433  0.10499  0.000632  0.000283  0.013293     2.230
   1.04077  0.00014  0.00237 -0.00009  0.000641  0.000287  0.000011     2.230
   1.04268 -0.00001  0.00047 -0.13487  0.000511  0.000228  0.020860     2.244
   1.04452  0.00009 -0.00138 -0.29366  0.000486  0.000220  0.049106     2.213
   1.04638  0.00049 -0.00318 -0.44748  0.000511  0.000226  0.068234     2.257
   1.04830  0.00119 -0.00498 -0.58540  0.000539  0.000240  0.085855     2.246
   1.05035  0.00220 -0.00676 -0.70372  0.000596  0.000261  0.089615     2.284
   1.05254  0.00351 -0.00851 -0.79784  0.000663  0.000289  0.090602     2.297
   1.05487  0.00512 -0.01021 -0.86902  0.000753  0.000323  0.083942     2.332
   1.05738  0.00701 -0.01184 -0.92397  0.000842  0.000359  0.078947     2.345
   1.06008  0.00920 -0.01343 -0.96097  0.000971  0.000405  0.067526     2.398
   1.06301  0.01168 -0.01499 -0.98790  0.001089  0.000452  0.061163     2.410
   1.06622  0.01448 -0.01656 -1.01095  0.001202  0.000498  0.056529     2.413
   1.06978  0.01766 -0.01815 -1.03015  0.001327  0.000547  0.051425     2.427
   1.07377  0.02129 -0.01981 -1.04619  0.001460  0.000598  0.046870     2.440
   1.07825  0.02543 -0.02154 -1.06396  0.001560  0.000645  0.045623     2.418
   1.08332  0.03017 -0.02333 -1.08159  0.001679  0.000694  0.043127     2.417
   1.08907  0.03561 -0.02519 -1.09815  0.001810  0.000747  0.040368     2.423
   1.09564  0.04190 -0.02708 -1.11235  0.001968  0.000807  0.036951     2.440
   1.10320  0.04922 -0.02900 -1.12268  0.002168  0.000877  0.032809     2.471
   1.11196  0.05776 -0.03093 -1.12867  0.002411  0.000961  0.028509     2.508
   1.12207  0.06768 -0.03288 -1.13169  0.002675  0.001055  0.025006     2.536
   1.13350  0.07895 -0.03481 -1.13419  0.002921  0.001150  0.022850     2.540
   1.14613  0.09144 -0.03664 -1.13584  0.003182  0.001249  0.020823     2.548
   1.15994  0.10515 -0.03835 -1.13528  0.003493  0.001357  0.018423     2.574
   1.17469  0.11981 -0.03996 -1.13607  0.003725  0.001455  0.017557     2.560
   1.18993  0.13498 -0.04141 -1.13749  0.003946  0.001548  0.016799     2.549
   1.20552  0.15051 -0.04267 -1.13855  0.004180  0.001640  0.015856     2.550
   1.22143  0.16639 -0.04375 -1.13925  0.004416  0.001729  0.014954     2.553
   1.23764  0.18258 -0.04467 -1.13966  0.004649  0.001817  0.014139     2.558
   1.25400  0.19892 -0.04546 -1.14064  0.004840  0.001898  0.013704     2.551
   1.27036  0.21526 -0.04609 -1.14162  0.005029  0.001975  0.013256     2.547
   1.28677  0.23166 -0.04656 -1.14217  0.005234  0.002052  0.012687     2.551
   1.30335  0.24824 -0.04689 -1.14239  0.005444  0.002129  0.012116     2.557
   1.32002  0.26491 -0.04711 -1.14297  0.005619  0.002200  0.011783     2.554
   1.33663  0.28153 -0.04721 -1.14341  0.005798  0.002270  0.011422     2.554
   1.35321  0.29810 -0.04717 -1.14373  0.005976  0.002338  0.011065     2.556
   1.36986  0.31475 -0.04699 -1.14366  0.006171  0.002408  0.010634     2.563
   1.38656  0.33145 -0.04670 -1.14350  0.006360  0.002476  0.010252     2.568
   1.40323  0.34811 -0.04629 -1.14314  0.006551  0.002544  0.009877     2.575
   1.41985  0.36473 -0.04576 -1.14264  0.006740  0.002611  0.009524     2.581
   1.43647  0.38133 -0.04510 -1.14160  0.006961  0.002681  0.009063     2.596
   1.45309  0.39793 -0.04431 -1.14021  0.007193  0.002753  0.008593     2.613
   1.46972  0.41453 -0.04339 -1.13834  0.007449  0.002827  0.008075     2.635
   1.48633  0.43111 -0.04234 -1.13620  0.007712  0.002903  0.007584     2.657
   1.50291  0.44765 -0.04116 -1.13346  0.008019  0.002983  0.007005     2.688
   1.51945  0.46414 -0.03985 -1.13032  0.008351  0.003066  0.006417     2.724
   1.53596  0.48059 -0.03840 -1.12661  0.008737  0.003154  0.005761     2.771
   1.55247  0.49701 -0.03680 -1.12234  0.009188  0.003247  0.005044     2.830
   1.56903  0.51348 -0.03504 -1.11760  0.009711  0.003346  0.004291     2.902
   1.58574  0.53008 -0.03313 -1.11248  0.010314  0.003449  0.003522     2.990
   1.60264  0.54687 -0.03109 -1.10729  0.010961  0.003553  0.002821     3.085
   1.61973  0.56382 -0.02896 -1.10216  0.011643  0.003657  0.002202     3.184
   1.63695  0.58089 -0.02675 -1.09720  0.012340  0.003758  0.001680     3.284
   1.65426  0.59806 -0.02449 -1.09247  0.013041  0.003856  0.001245     3.382
   1.67164  0.61529 -0.02221 -1.08798  0.013726  0.003951  0.000900     3.474
   1.68905  0.63255 -0.01994 -1.08375  0.014382  0.004043  0.000631     3.558
   1.70644  0.64979 -0.01769 -1.07976  0.015002  0.004131  0.000425     3.632
   1.72377  0.66698 -0.01547 -1.07598  0.015584  0.004216  0.000268     3.696
   1.74101  0.68409 -0.01330 -1.07241  0.016119  0.004299  0.000153     3.750
   1.75815  0.70109 -0.01119 -1.06902  0.016596  0.004379  0.000074     3.790
   1.77520  0.71802 -0.00917 -1.06579  0.017001  0.004457  0.000029     3.815
   1.79217  0.73488 -0.00723 -1.06271  0.017335  0.004533  0.000012     3.824
   1.80907  0.75168 -0.00538 -1.05975  0.017589  0.004607  0.000022     3.818
   1.82588  0.76841 -0.00365 -1.05693  0.017766  0.004679  0.000057     3.797
   1.84259  0.78504 -0.00203 -1.05424  0.017851  0.004749  0.000120     3.759
   1.85920  0.80157 -0.00054 -1.05169  0.017841  0.004817  0.000215     3.704
   1.87568  0.81800  0.00080 -1.04931  0.017729  0.004881  0.000349     3.632
   1.89204  0.83432  0.00198 -1.04715  0.017506  0.004941  0.000531     3.543
   1.90829  0.85054  0.00299 -1.04530  0.017167  0.004994  0.000774     3.437
   1.92442  0.86665  0.00381 -1.04386  0.016707  0.005038  0.001095     3.316
   1.94041  0.88262  0.00443 -1.04303  0.016135  0.005069  0.001506     3.183
   1.95619  0.89840  0.00486 -1.04305  0.015450  0.005081  0.002031     3.041
   1.97170  0.91391  0.00506 -1.04426  0.014651  0.005069  0.002703     2.891
   1.98685  0.92905  0.00502 -1.04714  0.013739  0.005023  0.003564     2.735
   2.00150  0.94370  0.00473 -1.05231  0.012719  0.004937  0.004673     2.576
   2.01546  0.95766  0.00418 -1.06051  0.011608  0.004800  0.006111     2.418
   2.02853  0.97070  0.00337 -1.07278  0.010418  0.004606  0.008007     2.262
   2.04056  0.98268  0.00230 -1.09046  0.009171  0.004347  0.010560     2.110
   2.05143  0.99347  0.00100 -1.11575  0.007875  0.004016  0.014161     1.961
   2.05803  1.00000  0.00000 -1.11022  0.008361  0.004132  0.012645     2.023
   2.05803  1.00010 -0.00002  1.11022  0.157536  0.007628  0.000000    20.653
   2.06467  1.00659 -0.00141  1.10739  0.152997  0.008064  0.000000    18.972
   2.07243  1.01423 -0.00277  1.10424  0.150951  0.008546  0.000000    17.663
   2.08150  1.02318 -0.00419  1.10048  0.148911  0.009117  0.000000    16.333
   2.09210  1.03367 -0.00569  1.09595  0.146738  0.009806  0.000000    14.965
   2.10448  1.04596 -0.00729  1.09053  0.144273  0.010630  0.000000    13.572
   2.11896  1.06033 -0.00899  1.08401  0.141390  0.011620  0.000000    12.168
   2.13587  1.07715 -0.01080  1.07617  0.137956  0.012814  0.000000    10.766
   2.15564  1.09683 -0.01272  1.06669  0.133819  0.014258  0.000000     9.385
   2.17875  1.11984 -0.01474  1.05518  0.128806  0.016017  0.000000     8.042
   2.20575  1.14676 -0.01686  1.04106  0.122718  0.018178  0.000000     6.751
   2.23731  1.17825 -0.01905  1.02358  0.115342  0.020864  0.000000     5.528
   2.27420  1.21506 -0.02130  1.00105  0.106534  0.024354  0.000000     4.374
   2.31730  1.25811 -0.02357  0.97438  0.096133  0.028537  0.000000     3.369
   2.36768  1.30844 -0.02582  0.95231  0.084178  0.032000  0.000000     2.631
   2.42656  1.36728 -0.02798  0.93825  0.071660  0.034145  0.000000     2.099
   2.49537  1.43606 -0.02999  0.93452  0.059985  0.034682  0.000000     1.730
   2.57580  1.51646 -0.03174  0.93970  0.050381  0.033998  0.000000     1.482
   2.66978  1.61044 -0.03313  0.94959  0.043270  0.032808  0.000000     1.319
   2.77963  1.72029 -0.03400  0.96023  0.038331  0.031637  0.000000     1.212
   2.90801  1.84866 -0.03419  0.96959  0.034982  0.030677  0.000000     1.140
   3.05804  1.99870 -0.03350  0.98291  0.032087  0.029401  0.000000     1.091
