#    s        x        y     Ue/Vinf    Dstar     Theta      Cf       H
   0.00000  1.00000  0.00000  1.09000  0.132207  0.003696 -0.000261    35.766
   0.00667  0.99364  0.00201  1.08984  0.128795  0.003720 -0.000820    34.626
   0.01801  0.98283  0.00544  1.08979  0.125504  0.003730 -0.000818    33.649
   0.03089  0.97055  0.00931  1.08974  0.121912  0.003740 -0.000817    32.598
   0.04491  0.95712  0.01335  1.08971  0.118219  0.003749 -0.000815    31.537
   0.05974  0.94286  0.01740  1.08969  0.114528  0.003755 -0.000814    30.497
   0.07527  0.92786  0.02141  1.08970  0.110870  0.003760 -0.000814    29.484
   0.09142  0.91220  0.02541  1.08971  0.107197  0.003764 -0.000814    28.479
   0.10802  0.89609  0.02942  1.08974  0.103476  0.003767 -0.000814    27.467
   0.12488  0.87971  0.03341  1.08976  0.099717  0.003771 -0.000814    26.446
   0.14188  0.86318  0.03738  1.08979  0.095931  0.003774 -0.000814    25.419
   0.15896  0.84656  0.04130  1.08981  0.092123  0.003777 -0.000815    24.389
   0.17607  0.82989  0.04517  1.08984  0.088305  0.003781 -0.000815    23.356
   0.19318  0.81321  0.04899  1.08987  0.084485  0.003784 -0.000816    22.325
   0.21029  0.79652  0.05273  1.08990  0.080666  0.003788 -0.000816    21.298
   0.22743  0.77978  0.05643  1.08993  0.076845  0.003791 -0.000817    20.272
   0.24453  0.76308  0.06007  1.08997  0.073018  0.003794 -0.000818    19.247
   0.26151  0.74647  0.06361  1.09002  0.069224  0.003796 -0.000820    18.235
   0.27839  0.72994  0.06704  1.09008  0.065487  0.003798 -0.000822    17.243
   0.29522  0.71344  0.07036  1.09016  0.061807  0.003798 -0.000824    16.272
   0.31203  0.69694  0.07357  1.09027  0.058185  0.003797 -0.000827    15.322
   0.32881  0.68046  0.07667  1.09042  0.054629  0.003795 -0.000832    14.396
   0.34552  0.66401  0.07965  1.09061  0.051147  0.003790 -0.000837    13.495
   0.36216  0.64761  0.08250  1.09085  0.047758  0.003783 -0.000843    12.624
   0.37877  0.63123  0.08521  1.09118  0.044469  0.003773 -0.000851    11.786
   0.39539  0.61480  0.08779  1.09160  0.041278  0.003760 -0.000860    10.979
   0.41202  0.59836  0.09025  1.09213  0.038174  0.003743 -0.000872    10.200
   0.42857  0.58198  0.09257  1.09280  0.035177  0.003722 -0.000887     9.452
   0.44503  0.56566  0.09473  1.09364  0.032318  0.003696 -0.000906     8.744
   0.46148  0.54933  0.09674  1.09471  0.029595  0.003665 -0.000929     8.075
   0.47798  0.53293  0.09860  1.09606  0.026990  0.003628 -0.000959     7.440
   0.49446  0.51655  0.10033  1.09774  0.024510  0.003584 -0.000997     6.839
   0.51082  0.50026  0.10190  1.09981  0.022177  0.003533 -0.001045     6.276
   0.52710  0.48404  0.10328  1.10239  0.020016  0.003475 -0.001100     5.760
   0.54339  0.46779  0.10449  1.10559  0.018025  0.003407 -0.001134     5.290
   0.55971  0.45151  0.10554  1.10951  0.016198  0.003330 -0.001112     4.864
   0.57600  0.43525  0.10643  1.11422  0.014500  0.003244 -0.000951     4.469
   0.59218  0.41907  0.10713  1.11971  0.012992  0.003151 -0.000584     4.124
   0.60829  0.40298  0.10765  1.12594  0.011647  0.003050  0.000034     3.819
   0.62434  0.38693  0.10796  1.13303  0.010483  0.002940  0.000878     3.565
   0.64042  0.37085  0.10808  1.14092  0.009466  0.002822  0.001927     3.354
   0.65651  0.35476  0.10800  1.14938  0.008582  0.002700  0.003149     3.179
   0.67249  0.33878  0.10774  1.15808  0.007799  0.002575  0.004562     3.028
   0.68825  0.32303  0.10727  1.16653  0.007125  0.002454  0.006091     2.904
   0.70393  0.30737  0.10654  1.17407  0.006589  0.002340  0.007498     2.816
   0.71975  0.29158  0.10557  1.18063  0.006147  0.002233  0.008778     2.753
   0.73559  0.27578  0.10439  1.18670  0.005717  0.002126  0.010279     2.689
   0.75115  0.26028  0.10302  1.19184  0.005306  0.002023  0.012031     2.623
   0.76650  0.24502  0.10139  1.19496  0.004973  0.001930  0.013579     2.576
   0.78192  0.22972  0.09944  1.19568  0.004735  0.001849  0.014525     2.560
   0.79744  0.21436  0.09725  1.19594  0.004480  0.001765  0.015742     2.538
   0.81279  0.19920  0.09484  1.19538  0.004208  0.001680  0.017364     2.505
   0.82793  0.18429  0.09217  1.19230  0.003998  0.001604  0.018477     2.492
   0.84302  0.16950  0.08922  1.18806  0.003789  0.001528  0.019671     2.480
   0.85806  0.15481  0.08599  1.18237  0.003590  0.001451  0.020796     2.474
   0.87291  0.14036  0.08253  1.17566  0.003381  0.001372  0.022203     2.464
   0.88737  0.12638  0.07886  1.16757  0.003144  0.001291  0.024385     2.436
   0.90140  0.11290  0.07496  1.15573  0.002943  0.001216  0.026189     2.421
   0.91519  0.09977  0.07076  1.14066  0.002792  0.001146  0.026804     2.437
   0.92848  0.08721  0.06643  1.12610  0.002584  0.001065  0.028897     2.427
   0.94079  0.07568  0.06209  1.10857  0.002335  0.000983  0.033098     2.377
   0.95221  0.06515  0.05767  1.08240  0.002182  0.000921  0.034769     2.371
   0.96284  0.05550  0.05322  1.05442  0.002065  0.000861  0.034816     2.399
   0.97241  0.04692  0.04898  1.02927  0.001893  0.000790  0.037135     2.397
   0.98081  0.03952  0.04501  1.00164  0.001707  0.000720  0.041192     2.369
   0.98816  0.03319  0.04127  0.96801  0.001563  0.000662  0.043854     2.360
   0.99463  0.02777  0.03774  0.93057  0.001424  0.000608  0.047100     2.342
   1.00034  0.02313  0.03441  0.88701  0.001302  0.000561  0.050170     2.320
   1.00542  0.01915  0.03125  0.83781  0.001210  0.000522  0.051047     2.319
   1.00996  0.01574  0.02825  0.78524  0.001112  0.000483  0.052840     2.303
   1.01405  0.01281  0.02541  0.72736  0.001033  0.000448  0.052570     2.305
   1.01775  0.01030  0.02269  0.66345  0.000941  0.000414  0.054155     2.275
   1.02112  0.00816  0.02007  0.58877  0.000882  0.000390  0.051743     2.264
   1.02423  0.00634  0.01756  0.50945  0.000832  0.000367  0.047364     2.267
   1.02710  0.00481  0.01513  0.42519  0.000773  0.000343  0.042952     2.256
   1.02975  0.00353  0.01281  0.33129  0.000731  0.000328  0.036236     2.231
   1.03221  0.00250  0.01057  0.23343  0.000733  0.000330  0.025702     2.219
   1.03452  0.00166  0.00842  0.14293  0.000711  0.000314  0.015648     2.261
   1.03670  0.00100  0.00634  0.03758  0.000574  0.000257  0.005234     2.230
   1.03878  0.00049  0.00433 -0.09568  0.000574  0.000257  0.013351     2.230
   1.04077  0.00014  0.00237 -0.23227  0.000546  0.000246  0.034303     2.220
   1.04268 -0.00001  0.00047 -0.37049  0.000538  0.000241  0.055011     2.231
   1.04452  0.00009 -0.00138 -0.53738  0.000474  0.000217  0.094552     2.183
   1.04638  0.00049 -0.00318 -0.69275  0.000513  0.000225  0.102875     2.283
   1.04830  0.00119 -0.00498 -0.81798  0.000551  0.000243  0.115233     2.264
   1.05035  0.00220 -0.00676 -0.92381  0.000611  0.000266  0.113339     2.301
   1.05254  0.00351 -0.00851 -1.00456  0.000685  0.000295  0.107368     2.326
   1.05487  0.00512 -0.01021 -1.06638  0.000767  0.000327  0.099703     2.347
   1.05738  0.00701 -0.01184 -1.10852  0.000878  0.000367  0.086498     2.394
   1.06008  0.00920 -0.01343 -1.13006  0.001029  0.000418  0.070073     2.464
   1.06301  0.01168 -0.01499 -1.14646  0.001143  0.000465  0.064396     2.458
   1.06622  0.01448 -0.01656 -1.15737  0.001286  0.000517  0.055978     2.488
   1.06978  0.01766 -0.01815 -1.16552  0.001424  0.000570  0.050325     2.499
   1.07377  0.02129 -0.01981 -1.17307  0.001557  0.000623  0.046384     2.498
   1.07825  0.02543 -0.02154 -1.18198  0.001674  0.000674  0.044199     2.482
   1.08332  0.03017 -0.02333 -1.19148  0.001798  0.000727  0.041815     2.475
   1.08907  0.03561 -0.02519 -1.20060  0.001937  0.000782  0.039063     2.476
   1.09564  0.04190 -0.02708 -1.20710  0.002115  0.000846  0.035105     2.499
   1.10320  0.04922 -0.02900 -1.21068  0.002325  0.000920  0.031059     2.527
   1.11196  0.05776 -0.03093 -1.20994  0.002596  0.001008  0.026393     2.574
   1.12207  0.06768 -0.03288 -1.20721  0.002874  0.001105  0.023060     2.602
   1.13350  0.07895 -0.03481 -1.20451  0.003135  0.001203  0.021007     2.605
   1.14613  0.09144 -0.03664 -1.20048  0.003438  0.001309  0.018646     2.626
   1.15994  0.10515 -0.03835 -1.19520  0.003768  0.001421  0.016447     2.651
   1.17469  0.11981 -0.03996 -1.19168  0.004018  0.001525  0.015663     2.635
   1.18993  0.13498 -0.04141 -1.18884  0.004266  0.001624  0.014858     2.627
   1.20552  0.15051 -0.04267 -1.18655  0.004505  0.001719  0.014149     2.621
   1.22143  0.16639 -0.04375 -1.18392  0.004768  0.001815  0.013237     2.627
   1.23764  0.18258 -0.04467 -1.18161  0.005009  0.001906  0.012570     2.628
   1.25400  0.19892 -0.04546 -1.17976  0.005227  0.001993  0.012088     2.623
   1.27036  0.21526 -0.04609 -1.17849  0.005419  0.002073  0.011770     2.614
   1.28677  0.23166 -0.04656 -1.17695  0.005636  0.002154  0.011272     2.616
   1.30335  0.24824 -0.04689 -1.17518  0.005863  0.002235  0.010732     2.623
   1.32002  0.26491 -0.04711 -1.17380  0.006060  0.002311  0.010392     2.622
   1.33663  0.28153 -0.04721 -1.17253  0.006250  0.002385  0.010079     2.621
   1.35321  0.29810 -0.04717 -1.17112  0.006450  0.002458  0.009717     2.624
   1.36986  0.31475 -0.04699 -1.16928  0.006678  0.002534  0.009242     2.636
   1.38656  0.33145 -0.04670 -1.16766  0.006879  0.002606  0.008913     2.640
   1.40323  0.34811 -0.04629 -1.16575  0.007101  0.002679  0.008516     2.650
   1.41985  0.36473 -0.04576 -1.16365  0.007332  0.002753  0.008108     2.663
   1.43647  0.38133 -0.04510 -1.16129  0.007577  0.002828  0.007678     2.679
   1.45309  0.39793 -0.04431 -1.15855  0.007851  0.002906  0.007194     2.702
   1.46972  0.41453 -0.04339 -1.15546  0.008149  0.002986  0.006680     2.729
   1.48633  0.43111 -0.04234 -1.15192  0.008487  0.003070  0.006110     2.765
   1.50291  0.44765 -0.04116 -1.14816  0.008844  0.003155  0.005559     2.803
   1.51945  0.46414 -0.03985 -1.14391  0.009262  0.003245  0.004933     2.854
   1.53596  0.48059 -0.03840 -1.13934  0.009733  0.003339  0.004285     2.915
   1.55247  0.49701 -0.03680 -1.13437  0.010291  0.003437  0.003578     2.994
   1.56903  0.51348 -0.03504 -1.12919  0.010930  0.003538  0.002865     3.089
   1.58574  0.53008 -0.03313 -1.12391  0.011661  0.003641  0.002163     3.202
   1.60264  0.54687 -0.03109 -1.11875  0.012456  0.003743  0.001531     3.328
   1.61973  0.56382 -0.02896 -1.11383  0.013291  0.003842  0.000997     3.459
   1.63695  0.58089 -0.02675 -1.10921  0.014148  0.003937  0.000560     3.594
   1.65426  0.59806 -0.02449 -1.10490  0.015020  0.004027  0.000212     3.730
   1.67164  0.61529 -0.02221 -1.10088  0.015874  0.004114 -0.000050     3.859
   1.68905  0.63255 -0.01994 -1.09712  0.016704  0.004197 -0.000244     3.980
   1.70644  0.64979 -0.01769 -1.09359  0.017491  0.004277 -0.000382     4.090
   1.72377  0.66698 -0.01547 -1.09026  0.018232  0.004354 -0.000478     4.187
   1.74101  0.68409 -0.01330 -1.08711  0.018922  0.004430 -0.000544     4.271
   1.75815  0.70109 -0.01119 -1.08412  0.019546  0.004503 -0.000586     4.340
   1.77520  0.71802 -0.00917 -1.08127  0.020085  0.004575 -0.000609     4.390
   1.79217  0.73488 -0.00723 -1.07854  0.020543  0.004645 -0.000617     4.423
   1.80907  0.75168 -0.00538 -1.07592  0.020908  0.004714 -0.000614     4.435
   1.82588  0.76841 -0.00365 -1.07338  0.021182  0.004782 -0.000601     4.430
   1.84259  0.78504 -0.00203 -1.07092  0.021344  0.004848 -0.000576     4.402
   1.85920  0.80157 -0.00054 -1.06852  0.021395  0.004914 -0.000538     4.354
   1.87568  0.81800  0.00080 -1.06618  0.021322  0.004979 -0.000483     4.282
   1.89204  0.83432  0.00198 -1.06388  0.021116  0.005043 -0.000403     4.187
   1.90829  0.85054  0.00299 -1.06164  0.020768  0.005106 -0.000288     4.067
   1.92442  0.86665  0.00381 -1.05948  0.020273  0.005167 -0.000123     3.923
   1.94041  0.88262  0.00443 -1.05750  0.019638  0.005224  0.000109     3.759
   1.95619  0.89840  0.00486 -1.05586  0.018860  0.005272  0.000432     3.577
   1.97170  0.91391  0.00506 -1.05483  0.017937  0.005305  0.000876     3.381
   1.98685  0.92905  0.00502 -1.05480  0.016871  0.005314  0.001480     3.175
   2.00150  0.94370  0.00473 -1.05633  0.015674  0.005287  0.002290     2.965
   2.01546  0.95766  0.00418 -1.06011  0.014368  0.005213  0.003359     2.756
   2.02853  0.97070  0.00337 -1.06701  0.012976  0.005081  0.004765     2.554
   2.04056  0.98268  0.00230 -1.07795  0.011537  0.004884  0.006608     2.362
   2.05143  0.99347  0.00100 -1.09404  0.010087  0.004620  0.009044     2.184
   2.05803  1.00000  0.00000 -1.09000  0.010578  0.004716  0.008151     2.243
   2.05803  1.00010 -0.00002  1.09000  0.142785  0.008413  0.000000    16.973
   2.06467  1.00659 -0.00142  1.08721  0.137899  0.008817  0.000000    15.641
   2.07243  1.01422 -0.00279  1.08412  0.135612  0.009257  0.000000    14.649
   2.08150  1.02318 -0.00423  1.08041  0.133328  0.009785  0.000000    13.626
   2.09210  1.03366 -0.00577  1.07595  0.130895  0.010415  0.000000    12.568
   2.10448  1.04594 -0.00742  1.07059  0.128158  0.011170  0.000000    11.473
   2.11896  1.06030 -0.00919  1.06412  0.124990  0.012080  0.000000    10.347
   2.13587  1.07711 -0.01109  1.05626  0.121260  0.013181  0.000000     9.200
   2.15564  1.09678 -0.01313  1.04668  0.116824  0.014521  0.000000     8.045
   2.17875  1.11978 -0.01531  1.03489  0.111520  0.016165  0.000000     6.899
   2.20575  1.14668 -0.01763  1.02016  0.105175  0.018217  0.000000     5.773
   2.23731  1.17815 -0.02009  1.00124  0.097643  0.020856  0.000000     4.682
   2.27420  1.21494 -0.02267  0.97770  0.088806  0.024157  0.000000     3.676
   2.31730  1.25796 -0.02536  0.95651  0.078558  0.027123  0.000000     2.896
   2.36768  1.30827 -0.02815  0.94081  0.067519  0.029269  0.000000     2.307
   2.42656  1.36708 -0.03098  0.93393  0.056752  0.030162  0.000000     1.882
   2.49537  1.43583 -0.03384  0.93630  0.047440  0.029878  0.000000     1.588
   2.57580  1.51620 -0.03665  0.94491  0.040264  0.028939  0.000000     1.391
   2.66978  1.61015 -0.03934  0.95557  0.035163  0.027879  0.000000     1.261
   2.77963  1.71997 -0.04184  0.96551  0.031677  0.026966  0.000000     1.175
   2.90801  1.84833 -0.04404  0.97374  0.029320  0.026256  0.000000     1.117
   3.05804  1.99835 -0.04581  0.98435  0.027346  0.025390  0.000000     1.077
