#    s        x        y     Ue/Vinf    Dstar     Theta      Cf       H
   0.00000  1.00000  0.00000  1.08375  0.127227  0.003760 -0.000258    33.839
   0.00667  0.99364  0.00201  1.08357  0.123800  0.003783 -0.000803    32.721
   0.01801  0.98283  0.00544  1.08352  0.120538  0.003794 -0.000801    31.772
   0.03089  0.97055  0.00931  1.08347  0.116987  0.003804 -0.000799    30.753
   0.04491  0.95712  0.01335  1.08343  0.113344  0.003813 -0.000798    29.727
   0.05974  0.94286  0.01740  1.08342  0.109710  0.003820 -0.000797    28.723
   0.07527  0.92786  0.02141  1.08342  0.106116  0.003824 -0.000797    27.747
   0.09142  0.91220  0.02541  1.08344  0.102513  0.003828 -0.000797    26.781
   0.10802  0.89609  0.02942  1.08347  0.098867  0.003831 -0.000797    25.808
   0.12488  0.87971  0.03341  1.08350  0.095186  0.003834 -0.000798    24.829
   0.14188  0.86318  0.03738  1.08353  0.091483  0.003836 -0.000798    23.846
   0.15896  0.84656  0.04130  1.08357  0.087761  0.003839 -0.000799    22.859
   0.17607  0.82989  0.04517  1.08360  0.084033  0.003842 -0.000799    21.873
   0.19318  0.81321  0.04899  1.08364  0.080304  0.003844 -0.000800    20.888
   0.21029  0.79652  0.05273  1.08369  0.076582  0.003847 -0.000801    19.908
   0.22743  0.77978  0.05643  1.08374  0.072860  0.003849 -0.000803    18.931
   0.24453  0.76308  0.06007  1.08379  0.069134  0.003850 -0.000804    17.955
   0.26151  0.74647  0.06361  1.08386  0.065447  0.003851 -0.000806    16.993
   0.27839  0.72994  0.06704  1.08395  0.061816  0.003851 -0.000809    16.051
   0.29522  0.71344  0.07036  1.08407  0.058248  0.003850 -0.000812    15.131
   0.31203  0.69694  0.07357  1.08422  0.054741  0.003846 -0.000816    14.231
   0.32881  0.68046  0.07667  1.08442  0.051301  0.003841 -0.000821    13.355
   0.34552  0.66401  0.07965  1.08467  0.047942  0.003834 -0.000828    12.505
   0.36216  0.64761  0.08250  1.08500  0.044678  0.003824 -0.000835    11.685
   0.37877  0.63123  0.08521  1.08541  0.041519  0.003810 -0.000845    10.897
   0.39539  0.61480  0.08779  1.08594  0.038457  0.003793 -0.000857    10.139
   0.41202  0.59836  0.09025  1.08661  0.035491  0.003771 -0.000871     9.410
   0.42857  0.58198  0.09257  1.08745  0.032634  0.003746 -0.000889     8.712
   0.44503  0.56566  0.09473  1.08849  0.029913  0.003715 -0.000912     8.052
   0.46148  0.54933  0.09674  1.08980  0.027341  0.003678 -0.000941     7.434
   0.47798  0.53293  0.09860  1.09144  0.024890  0.003634 -0.000977     6.849
   0.49446  0.51655  0.10033  1.09347  0.022558  0.003584 -0.001023     6.294
   0.51082  0.50026  0.10190  1.09596  0.020382  0.003526 -0.001077     5.781
   0.52710  0.48404  0.10328  1.09903  0.018379  0.003460 -0.001111     5.312
   0.54339  0.46779  0.10449  1.10279  0.016562  0.003384 -0.001096     4.894
   0.55971  0.45151  0.10554  1.10732  0.014882  0.003299 -0.000959     4.511
   0.57600  0.43525  0.10643  1.11261  0.013344  0.003207 -0.000627     4.162
   0.59218  0.41907  0.10713  1.11859  0.011990  0.003107 -0.000066     3.859
   0.60829  0.40298  0.10765  1.12539  0.010793  0.002999  0.000730     3.599
   0.62434  0.38693  0.10796  1.13295  0.009764  0.002884  0.001707     3.386
   0.64042  0.37085  0.10808  1.14109  0.008863  0.002763  0.002855     3.208
   0.65651  0.35476  0.10800  1.14948  0.008086  0.002640  0.004121     3.063
   0.67249  0.33878  0.10774  1.15786  0.007393  0.002517  0.005552     2.937
   0.68825  0.32303  0.10727  1.16570  0.006797  0.002399  0.007057     2.833
   0.70393  0.30737  0.10654  1.17241  0.006321  0.002291  0.008408     2.760
   0.71975  0.29158  0.10557  1.17799  0.005932  0.002189  0.009581     2.710
   0.73559  0.27578  0.10439  1.18314  0.005541  0.002087  0.011014     2.655
   0.75115  0.26028  0.10302  1.18752  0.005147  0.001986  0.012816     2.591
   0.76650  0.24502  0.10139  1.18945  0.004845  0.001898  0.014246     2.552
   0.78192  0.22972  0.09944  1.18914  0.004624  0.001820  0.015124     2.540
   0.79744  0.21436  0.09725  1.18847  0.004378  0.001739  0.016360     2.518
   0.81279  0.19920  0.09484  1.18673  0.004124  0.001657  0.017884     2.489
   0.82793  0.18429  0.09217  1.18268  0.003915  0.001582  0.019053     2.475
   0.84302  0.16950  0.08922  1.17711  0.003721  0.001508  0.020132     2.467
   0.85806  0.15481  0.08599  1.17021  0.003532  0.001434  0.021167     2.463
   0.87291  0.14036  0.08253  1.16235  0.003334  0.001357  0.022425     2.456
   0.88737  0.12638  0.07886  1.15350  0.003082  0.001274  0.025016     2.419
   0.90140  0.11290  0.07496  1.13943  0.002908  0.001204  0.026293     2.415
   0.91519  0.09977  0.07076  1.12338  0.002758  0.001134  0.026869     2.432
   0.92848  0.08721  0.06643  1.10777  0.002544  0.001052  0.029142     2.417
   0.94079  0.07568  0.06209  1.08841  0.002303  0.000972  0.033172     2.370
   0.95221  0.06515  0.05767  1.06052  0.002154  0.000911  0.034731     2.365
   0.96284  0.05550  0.05322  1.03061  0.002027  0.000851  0.035222     2.383
   0.97241  0.04692  0.04898  1.00246  0.001874  0.000784  0.036708     2.392
   0.98081  0.03952  0.04501  0.97325  0.001686  0.000714  0.040814     2.362
   0.98816  0.03319  0.04127  0.93744  0.001544  0.000656  0.043334     2.353
   0.99463  0.02777  0.03774  0.89720  0.001404  0.000603  0.046718     2.328
   1.00034  0.02313  0.03441  0.85108  0.001301  0.000559  0.047808     2.328
   1.00542  0.01915  0.03125  0.80104  0.001185  0.000516  0.050748     2.299
   1.00996  0.01574  0.02825  0.74467  0.001112  0.000481  0.049733     2.311
   1.01405  0.01281  0.02541  0.68600  0.001014  0.000443  0.051181     2.291
   1.01775  0.01030  0.02269  0.61743  0.000935  0.000412  0.051050     2.268
   1.02112  0.00816  0.02007  0.54176  0.000881  0.000388  0.047276     2.273
   1.02423  0.00634  0.01756  0.45920  0.000818  0.000366  0.044692     2.234
   1.02710  0.00481  0.01513  0.37515  0.000784  0.000340  0.035672     2.307
   1.02975  0.00353  0.01281  0.27847  0.000683  0.000312  0.033838     2.188
   1.03221  0.00250  0.01057  0.17281  0.000748  0.000331  0.017953     2.260
   1.03452  0.00166  0.00842  0.07896  0.000656  0.000294  0.009630     2.230
   1.03670  0.00100  0.00634 -0.02772  0.000656  0.000294  0.003377     2.230
   1.03878  0.00049  0.00433 -0.15961  0.000537  0.000242  0.024119     2.215
   1.04077  0.00014  0.00237 -0.29540  0.000565  0.000250  0.040740     2.258
   1.04268 -0.00001  0.00047 -0.43705  0.000520  0.000238  0.069631     2.190
   1.04452  0.00009 -0.00138 -0.61242  0.000472  0.000214  0.106376     2.202
   1.04638  0.00049 -0.00318 -0.77005  0.000504  0.000222  0.117616     2.272
   1.04830  0.00119 -0.00498 -0.89533  0.000550  0.000241  0.124296     2.280
   1.05035  0.00220 -0.00676 -0.99151  0.000624  0.000269  0.116692     2.323
   1.05254  0.00351 -0.00851 -1.07316  0.000677  0.000293  0.118119     2.307
   1.05487  0.00512 -0.01021 -1.12838  0.000787  0.000330  0.099214     2.384
   1.05738  0.00701 -0.01184 -1.16389  0.000895  0.000371  0.087690     2.410
   1.06008  0.00920 -0.01343 -1.18301  0.001040  0.000421  0.072053     2.471
   1.06301  0.01168 -0.01499 -1.19468  0.001174  0.000471  0.063213     2.490
   1.06622  0.01448 -0.01656 -1.20292  0.001308  0.000523  0.056260     2.504
   1.06978  0.01766 -0.01815 -1.20901  0.001447  0.000575  0.050522     2.515
   1.07377  0.02129 -0.01981 -1.21322  0.001595  0.000631  0.045352     2.528
   1.07825  0.02543 -0.02154 -1.21926  0.001714  0.000684  0.043344     2.508
   1.08332  0.03017 -0.02333 -1.22543  0.001849  0.000738  0.040534     2.504
   1.08907  0.03561 -0.02519 -1.23202  0.001986  0.000795  0.038168     2.499
   1.09564  0.04190 -0.02708 -1.23653  0.002164  0.000860  0.034467     2.517
   1.10320  0.04922 -0.02900 -1.23802  0.002382  0.000935  0.030297     2.549
   1.11196  0.05776 -0.03093 -1.23544  0.002659  0.001024  0.025660     2.597
   1.12207  0.06768 -0.03288 -1.23092  0.002946  0.001121  0.022283     2.627
   1.13350  0.07895 -0.03481 -1.22602  0.003227  0.001223  0.019989     2.638
   1.14613  0.09144 -0.03664 -1.22048  0.003528  0.001330  0.017874     2.654
   1.15994  0.10515 -0.03835 -1.21370  0.003871  0.001444  0.015671     2.681
   1.17469  0.11981 -0.03996 -1.20871  0.004132  0.001549  0.014875     2.667
   1.18993  0.13498 -0.04141 -1.20472  0.004381  0.001650  0.014181     2.655
   1.20552  0.15051 -0.04267 -1.20119  0.004632  0.001747  0.013444     2.651
   1.22143  0.16639 -0.04375 -1.19764  0.004897  0.001844  0.012618     2.655
   1.23764  0.18258 -0.04467 -1.19434  0.005150  0.001938  0.011935     2.657
   1.25400  0.19892 -0.04546 -1.19178  0.005366  0.002025  0.011532     2.650
   1.27036  0.21526 -0.04609 -1.18978  0.005563  0.002107  0.011233     2.640
   1.28677  0.23166 -0.04656 -1.18737  0.005797  0.002191  0.010681     2.646
   1.30335  0.24824 -0.04689 -1.18503  0.006024  0.002273  0.010203     2.650
   1.32002  0.26491 -0.04711 -1.18292  0.006235  0.002352  0.009834     2.651
   1.33663  0.28153 -0.04721 -1.18116  0.006422  0.002426  0.009577     2.647
   1.35321  0.29810 -0.04717 -1.17910  0.006638  0.002502  0.009183     2.653
   1.36986  0.31475 -0.04699 -1.17683  0.006867  0.002578  0.008752     2.663
   1.38656  0.33145 -0.04670 -1.17469  0.007080  0.002652  0.008414     2.669
   1.40323  0.34811 -0.04629 -1.17226  0.007316  0.002728  0.008004     2.682
   1.41985  0.36473 -0.04576 -1.16971  0.007557  0.002804  0.007604     2.695
   1.43647  0.38133 -0.04510 -1.16686  0.007822  0.002881  0.007156     2.715
   1.45309  0.39793 -0.04431 -1.16360  0.008121  0.002962  0.006645     2.742
   1.46972  0.41453 -0.04339 -1.16007  0.008442  0.003045  0.006123     2.773
   1.48633  0.43111 -0.04234 -1.15621  0.008796  0.003130  0.005575     2.810
   1.50291  0.44765 -0.04116 -1.15201  0.009193  0.003219  0.004992     2.856
   1.51945  0.46414 -0.03985 -1.14751  0.009638  0.003310  0.004383     2.911
   1.53596  0.48059 -0.03840 -1.14266  0.010156  0.003406  0.003725     2.982
   1.55247  0.49701 -0.03680 -1.13756  0.010757  0.003505  0.003037     3.069
   1.56903  0.51348 -0.03504 -1.13234  0.011445  0.003606  0.002350     3.173
   1.58574  0.53008 -0.03313 -1.12712  0.012232  0.003708  0.001682     3.299
   1.60264  0.54687 -0.03109 -1.12208  0.013092  0.003808  0.001086     3.439
   1.61973  0.56382 -0.02896 -1.11735  0.013991  0.003903  0.000595     3.585
   1.63695  0.58089 -0.02675 -1.11295  0.014914  0.003994  0.000205     3.734
   1.65426  0.59806 -0.02449 -1.10887  0.015856  0.004080 -0.000099     3.886
   1.67164  0.61529 -0.02221 -1.10507  0.016779  0.004163 -0.000319     4.030
   1.68905  0.63255 -0.01994 -1.10152  0.017675  0.004243 -0.000474     4.166
   1.70644  0.64979 -0.01769 -1.09817  0.018530  0.004320 -0.000579     4.290
   1.72377  0.66698 -0.01547 -1.09502  0.019339  0.004395 -0.000648     4.400
   1.74101  0.68409 -0.01330 -1.09206  0.020090  0.004468 -0.000692     4.497
   1.75815  0.70109 -0.01119 -1.08926  0.020774  0.004538 -0.000717     4.578
   1.77520  0.71802 -0.00917 -1.08660  0.021372  0.004606 -0.000728     4.640
   1.79217  0.73488 -0.00723 -1.08406  0.021882  0.004674 -0.000730     4.682
   1.80907  0.75168 -0.00538 -1.08161  0.022296  0.004740 -0.000725     4.704
   1.82588  0.76841 -0.00365 -1.07924  0.022613  0.004805 -0.000714     4.706
   1.84259  0.78504 -0.00203 -1.07693  0.022813  0.004869 -0.000697     4.686
   1.85920  0.80157 -0.00054 -1.07468  0.022898  0.004932 -0.000674     4.642
   1.87568  0.81800  0.00080 -1.07246  0.022850  0.004995 -0.000640     4.574
   1.89204  0.83432  0.00198 -1.07028  0.022663  0.005058 -0.000591     4.481
   1.90829  0.85054  0.00299 -1.06813  0.022325  0.005120 -0.000520     4.361
   1.92442  0.86665  0.00381 -1.06600  0.021831  0.005181 -0.000414     4.214
   1.94041  0.88262  0.00443 -1.06392  0.021186  0.005241 -0.000256     4.042
   1.95619  0.89840  0.00486 -1.06197  0.020387  0.005297 -0.000023     3.849
   1.97170  0.91391  0.00506 -1.06036  0.019431  0.005345  0.000316     3.636
   1.98685  0.92905  0.00502 -1.05942  0.018321  0.005375  0.000799     3.409
   2.00150  0.94370  0.00473 -1.05965  0.017067  0.005376  0.001471     3.175
   2.01546  0.95766  0.00418 -1.06172  0.015694  0.005335  0.002380     2.942
   2.02853  0.97070  0.00337 -1.06644  0.014231  0.005239  0.003587     2.717
   2.04056  0.98268  0.00230 -1.07465  0.012722  0.005079  0.005162     2.505
   2.05143  0.99347  0.00100 -1.08716  0.011218  0.004855  0.007200     2.311
   2.05803  1.00000  0.00000 -1.08375  0.011708  0.004940  0.006496     2.370
   2.05803  1.00010 -0.00002  1.08375  0.138935  0.008700  0.000000    15.969
   2.06467  1.00659 -0.00142  1.08095  0.133921  0.009099  0.000000    14.718
   2.07243  1.01422 -0.00280  1.07784  0.131551  0.009535  0.000000    13.797
   2.08150  1.02317 -0.00425  1.07413  0.129180  0.010053  0.000000    12.850
   2.09210  1.03366 -0.00580  1.06967  0.126659  0.010672  0.000000    11.869
   2.10448  1.04593 -0.00746  1.06430  0.123830  0.011414  0.000000    10.849
   2.11896  1.06029 -0.00925  1.05780  0.120566  0.012308  0.000000     9.796
   2.13587  1.07710 -0.01118  1.04991  0.116739  0.013391  0.000000     8.718
   2.15564  1.09676 -0.01326  1.04024  0.112206  0.014711  0.000000     7.627
   2.17875  1.11976 -0.01549  1.02831  0.106811  0.016337  0.000000     6.538
   2.20575  1.14666 -0.01787  1.01328  0.100394  0.018379  0.000000     5.462
   2.23731  1.17812 -0.02041  0.99369  0.092840  0.021044  0.000000     4.412
   2.27420  1.21490 -0.02309  0.97123  0.083982  0.024109  0.000000     3.483
   2.31730  1.25792 -0.02592  0.95172  0.073879  0.026749  0.000000     2.762
   2.36768  1.30821 -0.02887  0.93817  0.063209  0.028526  0.000000     2.216
   2.42656  1.36701 -0.03191  0.93346  0.053031  0.029109  0.000000     1.822
   2.49537  1.43575 -0.03503  0.93740  0.044419  0.028661  0.000000     1.550
   2.57580  1.51611 -0.03816  0.94666  0.037884  0.027703  0.000000     1.368
   2.66978  1.61005 -0.04127  0.95731  0.033273  0.026698  0.000000     1.246
   2.77963  1.71985 -0.04427  0.96695  0.030124  0.025854  0.000000     1.165
   2.90801  1.84820 -0.04709  0.97484  0.027991  0.025203  0.000000     1.111
   3.05804  1.99821 -0.04962  0.98478  0.026216  0.024425  0.000000     1.073
