#    s        x        y     Ue/Vinf    Dstar     Theta      Cf       H
   0.00000  1.00000  0.00000  1.07090  0.109594  0.003984 -0.000252    27.510
   0.00667  0.99364  0.00201  1.07068  0.106108  0.004009 -0.000752    26.465
   0.01801  0.98283  0.00544  1.07062  0.103015  0.004020 -0.000751    25.628
   0.03089  0.97055  0.00931  1.07057  0.099689  0.004029 -0.000750    24.743
   0.04491  0.95712  0.01335  1.07054  0.096310  0.004036 -0.000749    23.860
   0.05974  0.94286  0.01740  1.07054  0.092970  0.004041 -0.000749    23.004
   0.07527  0.92786  0.02141  1.07057  0.089690  0.004044 -0.000750    22.177
   0.09142  0.91220  0.02541  1.07062  0.086420  0.004045 -0.000751    21.364
   0.10802  0.89609  0.02942  1.07068  0.083121  0.004045 -0.000752    20.547
   0.12488  0.87971  0.03341  1.07075  0.079799  0.004045 -0.000753    19.728
   0.14188  0.86318  0.03738  1.07083  0.076463  0.004044 -0.000755    18.907
   0.15896  0.84656  0.04130  1.07091  0.073118  0.004043 -0.000757    18.085
   0.17607  0.82989  0.04517  1.07101  0.069772  0.004041 -0.000759    17.265
   0.19318  0.81321  0.04899  1.07113  0.066434  0.004039 -0.000761    16.449
   0.21029  0.79652  0.05273  1.07126  0.063110  0.004036 -0.000764    15.638
   0.22743  0.77978  0.05643  1.07141  0.059793  0.004031 -0.000768    14.832
   0.24453  0.76308  0.06007  1.07159  0.056482  0.004026 -0.000772    14.028
   0.26151  0.74647  0.06361  1.07179  0.053211  0.004020 -0.000776    13.237
   0.27839  0.72994  0.06704  1.07205  0.050009  0.004011 -0.000782    12.467
   0.29522  0.71344  0.07036  1.07236  0.046874  0.004001 -0.000789    11.716
   0.31203  0.69694  0.07357  1.07275  0.043808  0.003987 -0.000797    10.987
   0.32881  0.68046  0.07667  1.07322  0.040823  0.003971 -0.000807    10.280
   0.34552  0.66401  0.07965  1.07381  0.037922  0.003951 -0.000820     9.598
   0.36216  0.64761  0.08250  1.07453  0.035126  0.003927 -0.000834     8.944
   0.37877  0.63123  0.08521  1.07542  0.032443  0.003899 -0.000853     8.321
   0.39539  0.61480  0.08779  1.07651  0.029871  0.003865 -0.000875     7.728
   0.41202  0.59836  0.09025  1.07786  0.027402  0.003826 -0.000904     7.161
   0.42857  0.58198  0.09257  1.07950  0.025054  0.003782 -0.000939     6.625
   0.44503  0.56566  0.09473  1.08149  0.022846  0.003730 -0.000983     6.124
   0.46148  0.54933  0.09674  1.08394  0.020794  0.003671 -0.001029     5.664
   0.47798  0.53293  0.09860  1.08691  0.018875  0.003604 -0.001052     5.237
   0.49446  0.51655  0.10033  1.09049  0.017078  0.003529 -0.001025     4.839
   0.51082  0.50026  0.10190  1.09471  0.015432  0.003446 -0.000886     4.478
   0.52710  0.48404  0.10328  1.09956  0.013960  0.003356 -0.000589     4.159
   0.54339  0.46779  0.10449  1.10504  0.012647  0.003260 -0.000109     3.880
   0.55971  0.45151  0.10554  1.11123  0.011480  0.003155  0.000551     3.638
   0.57600  0.43525  0.10643  1.11816  0.010412  0.003042  0.001428     3.422
   0.59218  0.41907  0.10713  1.12556  0.009503  0.002925  0.002416     3.249
   0.60829  0.40298  0.10765  1.13322  0.008708  0.002806  0.003519     3.103
   0.62434  0.38693  0.10796  1.14082  0.008030  0.002688  0.004663     2.987
   0.64042  0.37085  0.10808  1.14807  0.007452  0.002574  0.005806     2.895
   0.65651  0.35476  0.10800  1.15500  0.006925  0.002461  0.007042     2.813
   0.67249  0.33878  0.10774  1.16132  0.006448  0.002353  0.008366     2.740
   0.68825  0.32303  0.10727  1.16684  0.006010  0.002249  0.009808     2.673
   0.70393  0.30737  0.10654  1.17062  0.005676  0.002156  0.010930     2.632
   0.71975  0.29158  0.10557  1.17319  0.005394  0.002069  0.011870     2.607
   0.73559  0.27578  0.10439  1.17550  0.005086  0.001979  0.013154     2.570
   0.75115  0.26028  0.10302  1.17697  0.004765  0.001890  0.014819     2.522
   0.76650  0.24502  0.10139  1.17589  0.004517  0.001811  0.016100     2.494
   0.78192  0.22972  0.09944  1.17249  0.004339  0.001743  0.016781     2.490
   0.79744  0.21436  0.09725  1.16880  0.004134  0.001669  0.017798     2.477
   0.81279  0.19920  0.09484  1.16446  0.003891  0.001591  0.019453     2.446
   0.82793  0.18429  0.09217  1.15687  0.003724  0.001524  0.020269     2.443
   0.84302  0.16950  0.08922  1.14842  0.003542  0.001455  0.021339     2.434
   0.85806  0.15481  0.08599  1.13823  0.003374  0.001386  0.022190     2.435
   0.87291  0.14036  0.08253  1.12722  0.003183  0.001312  0.023493     2.426
   0.88737  0.12638  0.07886  1.11446  0.002957  0.001234  0.025749     2.397
   0.90140  0.11290  0.07496  1.09684  0.002789  0.001167  0.027018     2.391
   0.91519  0.09977  0.07076  1.07670  0.002639  0.001099  0.027744     2.402
   0.92848  0.08721  0.06643  1.05593  0.002451  0.001023  0.029460     2.396
   0.94079  0.07568  0.06209  1.03195  0.002227  0.000945  0.032990     2.355
   0.95221  0.06515  0.05767  0.99961  0.002073  0.000885  0.034730     2.343
   0.96284  0.05550  0.05322  0.96381  0.001952  0.000828  0.035062     2.358
   0.97241  0.04692  0.04898  0.92982  0.001818  0.000764  0.035571     2.379
   0.98081  0.03952  0.04501  0.89545  0.001620  0.000693  0.040035     2.337
   0.98816  0.03319  0.04127  0.85214  0.001491  0.000640  0.041634     2.331
   0.99463  0.02777  0.03774  0.80514  0.001365  0.000590  0.043674     2.314
   1.00034  0.02313  0.03441  0.75373  0.001264  0.000545  0.043948     2.319
   1.00542  0.01915  0.03125  0.69727  0.001142  0.000501  0.046688     2.279
   1.00996  0.01574  0.02825  0.63079  0.001075  0.000473  0.045175     2.272
   1.01405  0.01281  0.02541  0.56640  0.001017  0.000438  0.040991     2.320
   1.01775  0.01030  0.02269  0.49499  0.000885  0.000396  0.044627     2.233
   1.02112  0.00816  0.02007  0.40533  0.000876  0.000390  0.036525     2.244
   1.02423  0.00634  0.01756  0.32365  0.000824  0.000361  0.029882     2.284
   1.02710  0.00481  0.01513  0.23149  0.000714  0.000319  0.025730     2.238
   1.02975  0.00353  0.01281  0.12007  0.000693  0.000311  0.013875     2.228
   1.03221  0.00250  0.01057  0.01367  0.000708  0.000318  0.001544     2.230
   1.03452  0.00166  0.00842 -0.08326  0.000708  0.000318  0.009405     2.230
   1.03670  0.00100  0.00634 -0.19565  0.000612  0.000278  0.026199     2.203
   1.03878  0.00049  0.00433 -0.34314  0.000530  0.000240  0.052943     2.205
   1.04077  0.00014  0.00237 -0.47940  0.000564  0.000249  0.065534     2.269
   1.04268 -0.00001  0.00047 -0.64268  0.000483  0.000224  0.113584     2.155
   1.04452  0.00009 -0.00138 -0.82264  0.000479  0.000214  0.136036     2.240
   1.04638  0.00049 -0.00318 -0.97102  0.000507  0.000224  0.148458     2.264
   1.04830  0.00119 -0.00498 -1.09626  0.000548  0.000240  0.152399     2.284
   1.05035  0.00220 -0.00676 -1.18576  0.000628  0.000268  0.135707     2.346
   1.05254  0.00351 -0.00851 -1.25147  0.000702  0.000298  0.126869     2.355
   1.05487  0.00512 -0.01021 -1.29546  0.000806  0.000335  0.108846     2.406
   1.05738  0.00701 -0.01184 -1.31968  0.000932  0.000379  0.090865     2.459
   1.06008  0.00920 -0.01343 -1.32644  0.001097  0.000432  0.071272     2.539
   1.06301  0.01168 -0.01499 -1.32834  0.001238  0.000484  0.062049     2.556
   1.06622  0.01448 -0.01656 -1.32826  0.001382  0.000537  0.054685     2.571
   1.06978  0.01766 -0.01815 -1.32470  0.001552  0.000596  0.046632     2.606
   1.07377  0.02129 -0.01981 -1.32160  0.001701  0.000653  0.042526     2.605
   1.07825  0.02543 -0.02154 -1.31939  0.001846  0.000711  0.039472     2.597
   1.08332  0.03017 -0.02333 -1.31883  0.001982  0.000769  0.037532     2.578
   1.08907  0.03561 -0.02519 -1.31811  0.002141  0.000830  0.034720     2.578
   1.09564  0.04190 -0.02708 -1.31559  0.002339  0.000900  0.030977     2.599
   1.10320  0.04922 -0.02900 -1.31107  0.002571  0.000979  0.027186     2.627
   1.11196  0.05776 -0.03093 -1.30293  0.002875  0.001072  0.022638     2.682
   1.12207  0.06768 -0.03288 -1.29303  0.003199  0.001175  0.019199     2.723
   1.13350  0.07895 -0.03481 -1.28318  0.003509  0.001282  0.017034     2.738
   1.14613  0.09144 -0.03664 -1.27307  0.003843  0.001394  0.015049     2.758
   1.15994  0.10515 -0.03835 -1.26226  0.004221  0.001513  0.013029     2.790
   1.17469  0.11981 -0.03996 -1.25311  0.004526  0.001626  0.012176     2.783
   1.18993  0.13498 -0.04141 -1.24538  0.004803  0.001734  0.011595     2.770
   1.20552  0.15051 -0.04267 -1.23837  0.005088  0.001839  0.010932     2.767
   1.22143  0.16639 -0.04375 -1.23197  0.005367  0.001941  0.010329     2.765
   1.23764  0.18258 -0.04467 -1.22594  0.005652  0.002041  0.009720     2.769
   1.25400  0.19892 -0.04546 -1.22084  0.005892  0.002135  0.009390     2.760
   1.27036  0.21526 -0.04609 -1.21624  0.006128  0.002225  0.009060     2.754
   1.28677  0.23166 -0.04656 -1.21171  0.006383  0.002315  0.008624     2.758
   1.30335  0.24824 -0.04689 -1.20717  0.006653  0.002404  0.008145     2.767
   1.32002  0.26491 -0.04711 -1.20312  0.006888  0.002489  0.007839     2.767
   1.33663  0.28153 -0.04721 -1.19935  0.007115  0.002571  0.007566     2.767
   1.35321  0.29810 -0.04717 -1.19530  0.007387  0.002656  0.007132     2.781
   1.36986  0.31475 -0.04699 -1.19134  0.007652  0.002739  0.006754     2.793
   1.38656  0.33145 -0.04670 -1.18722  0.007943  0.002824  0.006322     2.812
   1.40323  0.34811 -0.04629 -1.18317  0.008229  0.002908  0.005939     2.830
   1.41985  0.36473 -0.04576 -1.17890  0.008550  0.002994  0.005492     2.856
   1.43647  0.38133 -0.04510 -1.17442  0.008907  0.003081  0.005003     2.891
   1.45309  0.39793 -0.04431 -1.16968  0.009311  0.003172  0.004463     2.935
   1.46972  0.41453 -0.04339 -1.16481  0.009748  0.003264  0.003927     2.986
   1.48633  0.43111 -0.04234 -1.15971  0.010253  0.003360  0.003341     3.052
   1.50291  0.44765 -0.04116 -1.15457  0.010803  0.003455  0.002773     3.126
   1.51945  0.46414 -0.03985 -1.14934  0.011442  0.003553  0.002174     3.220
   1.53596  0.48059 -0.03840 -1.14418  0.012161  0.003650  0.001590     3.332
   1.55247  0.49701 -0.03680 -1.13915  0.012998  0.003746  0.001010     3.469
   1.56903  0.51348 -0.03504 -1.13439  0.013946  0.003839  0.000479     3.632
   1.58574  0.53008 -0.03313 -1.12997  0.015008  0.003928  0.000022     3.821
   1.60264  0.54687 -0.03109 -1.12592  0.016159  0.004011 -0.000334     4.029
   1.61973  0.56382 -0.02896 -1.12218  0.017362  0.004090 -0.000583     4.244
   1.63695  0.58089 -0.02675 -1.11871  0.018599  0.004167 -0.000740     4.463
   1.65426  0.59806 -0.02449 -1.11554  0.019857  0.004240 -0.000829     4.683
   1.67164  0.61529 -0.02221 -1.11265  0.021100  0.004309 -0.000868     4.896
   1.68905  0.63255 -0.01994 -1.11002  0.022316  0.004375 -0.000878     5.101
   1.70644  0.64979 -0.01769 -1.10761  0.023485  0.004438 -0.000872     5.292
   1.72377  0.66698 -0.01547 -1.10539  0.024600  0.004498 -0.000860     5.469
   1.74101  0.68409 -0.01330 -1.10334  0.025655  0.004555 -0.000845     5.632
   1.75815  0.70109 -0.01119 -1.10142  0.026625  0.004611 -0.000828     5.774
   1.77520  0.71802 -0.00917 -1.09960  0.027503  0.004665 -0.000811     5.895
   1.79217  0.73488 -0.00723 -1.09786  0.028279  0.004719 -0.000795     5.993
   1.80907  0.75168 -0.00538 -1.09618  0.028947  0.004771 -0.000782     6.067
   1.82588  0.76841 -0.00365 -1.09455  0.029502  0.004824 -0.000769     6.116
   1.84259  0.78504 -0.00203 -1.09295  0.029926  0.004876 -0.000759     6.137
   1.85920  0.80157 -0.00054 -1.09136  0.030216  0.004929 -0.000750     6.131
   1.87568  0.81800  0.00080 -1.08979  0.030354  0.004982 -0.000743     6.093
   1.89204  0.83432  0.00198 -1.08820  0.030333  0.005035 -0.000737     6.024
   1.90829  0.85054  0.00299 -1.08660  0.030138  0.005090 -0.000733     5.922
   1.92442  0.86665  0.00381 -1.08496  0.029763  0.005145 -0.000730     5.785
   1.94041  0.88262  0.00443 -1.08329  0.029210  0.005201 -0.000727     5.616
   1.95619  0.89840  0.00486 -1.08159  0.028470  0.005258 -0.000720     5.414
   1.97170  0.91391  0.00506 -1.07986  0.027538  0.005315 -0.000707     5.181
   1.98685  0.92905  0.00502 -1.07811  0.026414  0.005372 -0.000678     4.917
   2.00150  0.94370  0.00473 -1.07639  0.025107  0.005426 -0.000609     4.627
   2.01546  0.95766  0.00418 -1.07476  0.023647  0.005477 -0.000465     4.318
   2.02853  0.97070  0.00337 -1.07325  0.022075  0.005522 -0.000200     3.998
   2.04056  0.98268  0.00230 -1.07220  0.020456  0.005554  0.000225     3.683
   2.05143  0.99347  0.00100 -1.07207  0.018888  0.005560  0.000810     3.397
   2.05803  1.00000  0.00000 -1.07090  0.019455  0.005595  0.000619     3.477
   2.05803  1.00010 -0.00002  1.07090  0.129049  0.009579  0.000000    13.472
   2.06467  1.00659 -0.00142  1.06744  0.123491  0.010051  0.000000    12.286
   2.07243  1.01422 -0.00282  1.06361  0.120817  0.010565  0.000000    11.436
   2.08150  1.02317 -0.00429  1.05905  0.118134  0.011172  0.000000    10.574
   2.09210  1.03364 -0.00587  1.05359  0.115282  0.011895  0.000000     9.692
   2.10448  1.04591 -0.00759  1.04703  0.112094  0.012760  0.000000     8.785
   2.11896  1.06026 -0.00945  1.03909  0.108438  0.013802  0.000000     7.857
   2.13587  1.07706 -0.01147  1.02943  0.104184  0.015067  0.000000     6.915
   2.15564  1.09671 -0.01367  1.01752  0.099200  0.016623  0.000000     5.968
   2.17875  1.11969 -0.01605  1.00248  0.093365  0.018584  0.000000     5.024
   2.20575  1.14657 -0.01864  0.98295  0.086605  0.021144  0.000000     4.096
   2.23731  1.17801 -0.02143  0.96347  0.078671  0.023702  0.000000     3.319
   2.27420  1.21477 -0.02445  0.94621  0.069741  0.025946  0.000000     2.688
   2.31730  1.25775 -0.02769  0.93412  0.060301  0.027471  0.000000     2.195
   2.36768  1.30801 -0.03117  0.92967  0.051161  0.028001  0.000000     1.827
   2.42656  1.36677 -0.03489  0.93310  0.043203  0.027623  0.000000     1.564
   2.49537  1.43547 -0.03885  0.94194  0.036954  0.026734  0.000000     1.382
   2.57580  1.51578 -0.04303  0.95268  0.032406  0.025746  0.000000     1.259
   2.66978  1.60967 -0.04745  0.96284  0.029229  0.024883  0.000000     1.175
   2.77963  1.71942 -0.05207  0.97140  0.027044  0.024200  0.000000     1.118
   2.90801  1.84770 -0.05689  0.97823  0.025550  0.023680  0.000000     1.079
   3.05804  1.99766 -0.06188  0.98619  0.024318  0.023099  0.000000     1.053
