#    s        x        y     Ue/Vinf    Dstar     Theta      Cf       H
   0.00000  1.00000  0.00000  1.11690  0.155475  0.003427 -0.000274    45.374
   0.00667  0.99364  0.00201  1.11677  0.152080  0.003447 -0.000903    44.113
   0.01801  0.98283  0.00544  1.11674  0.148650  0.003456 -0.000901    43.009
   0.03089  0.97055  0.00931  1.11671  0.144873  0.003465 -0.000899    41.808
   0.04491  0.95712  0.01335  1.11669  0.140954  0.003473 -0.000897    40.586
   0.05974  0.94286  0.01740  1.11668  0.137006  0.003479 -0.000896    39.378
   0.07527  0.92786  0.02141  1.11669  0.133066  0.003484 -0.000895    38.195
   0.09142  0.91220  0.02541  1.11670  0.129087  0.003488 -0.000895    37.012
   0.10802  0.89609  0.02942  1.11672  0.125039  0.003491 -0.000895    35.814
   0.12488  0.87971  0.03341  1.11674  0.120934  0.003495 -0.000894    34.599
   0.14188  0.86318  0.03738  1.11676  0.116787  0.003500 -0.000894    33.371
   0.15896  0.84656  0.04130  1.11677  0.112605  0.003505 -0.000893    32.131
   0.17607  0.82989  0.04517  1.11677  0.108398  0.003510 -0.000893    30.884
   0.19318  0.81321  0.04899  1.11678  0.104177  0.003516 -0.000892    29.632
   0.21029  0.79652  0.05273  1.11678  0.099943  0.003522 -0.000891    28.378
   0.22743  0.77978  0.05643  1.11677  0.095694  0.003528 -0.000891    27.122
   0.24453  0.76308  0.06007  1.11676  0.091427  0.003535 -0.000890    25.861
   0.26151  0.74647  0.06361  1.11675  0.087179  0.003542 -0.000890    24.609
   0.27839  0.72994  0.06704  1.11674  0.082979  0.003549 -0.000890    23.378
   0.29522  0.71344  0.07036  1.11673  0.078821  0.003556 -0.000890    22.166
   0.31203  0.69694  0.07357  1.11673  0.074709  0.003562 -0.000890    20.974
   0.32881  0.68046  0.07667  1.11674  0.070648  0.003567 -0.000891    19.805
   0.34552  0.66401  0.07965  1.11677  0.066649  0.003571 -0.000892    18.662
   0.36216  0.64761  0.08250  1.11681  0.062727  0.003575 -0.000894    17.548
   0.37877  0.63123  0.08521  1.11689  0.058893  0.003576 -0.000896    16.469
   0.39539  0.61480  0.08779  1.11700  0.055139  0.003576 -0.000900    15.421
   0.41202  0.59836  0.09025  1.11715  0.051458  0.003573 -0.000905    14.401
   0.42857  0.58198  0.09257  1.11736  0.047869  0.003569 -0.000911    13.414
   0.44503  0.56566  0.09473  1.11765  0.044398  0.003561 -0.000918    12.468
   0.46148  0.54933  0.09674  1.11803  0.041052  0.003550 -0.000928    11.564
   0.47798  0.53293  0.09860  1.11854  0.037807  0.003535 -0.000941    10.695
   0.49446  0.51655  0.10033  1.11920  0.034665  0.003516 -0.000956     9.860
   0.51082  0.50026  0.10190  1.12004  0.031658  0.003492 -0.000976     9.066
   0.52710  0.48404  0.10328  1.12112  0.028810  0.003462 -0.001001     8.321
   0.54339  0.46779  0.10449  1.12252  0.026124  0.003426 -0.001033     7.625
   0.55971  0.45151  0.10554  1.12430  0.023569  0.003383 -0.001075     6.967
   0.57600  0.43525  0.10643  1.12655  0.021156  0.003332 -0.001130     6.350
   0.59218  0.41907  0.10713  1.12940  0.018928  0.003272 -0.001195     5.785
   0.60829  0.40298  0.10765  1.13296  0.016880  0.003203 -0.001235     5.270
   0.62434  0.38693  0.10796  1.13739  0.015024  0.003124 -0.001199     4.810
   0.64042  0.37085  0.10808  1.14281  0.013346  0.003034 -0.000979     4.399
   0.65651  0.35476  0.10800  1.14917  0.011849  0.002936 -0.000482     4.036
   0.67249  0.33878  0.10774  1.15649  0.010508  0.002829  0.000367     3.715
   0.68825  0.32303  0.10727  1.16483  0.009343  0.002712  0.001552     3.445
   0.70393  0.30737  0.10654  1.17386  0.008403  0.002590  0.002878     3.244
   0.71975  0.29158  0.10557  1.18327  0.007617  0.002466  0.004309     3.089
   0.73559  0.27578  0.10439  1.19288  0.006901  0.002339  0.006008     2.950
   0.75115  0.26028  0.10302  1.20200  0.006277  0.002217  0.007892     2.831
   0.76650  0.24502  0.10139  1.20977  0.005775  0.002104  0.009683     2.744
   0.78192  0.22972  0.09944  1.21560  0.005410  0.002004  0.010974     2.700
   0.79744  0.21436  0.09725  1.22095  0.005043  0.001902  0.012544     2.651
   0.81279  0.19920  0.09484  1.22522  0.004693  0.001803  0.014326     2.602
   0.82793  0.18429  0.09217  1.22732  0.004413  0.001714  0.015736     2.575
   0.84302  0.16950  0.08922  1.22815  0.004154  0.001626  0.017135     2.554
   0.85806  0.15481  0.08599  1.22761  0.003916  0.001541  0.018416     2.541
   0.87291  0.14036  0.08253  1.22630  0.003669  0.001453  0.020011     2.524
   0.88737  0.12638  0.07886  1.22396  0.003391  0.001363  0.022470     2.488
   0.90140  0.11290  0.07496  1.21785  0.003179  0.001283  0.024128     2.477
   0.91519  0.09977  0.07076  1.20980  0.002991  0.001205  0.025318     2.483
   0.92848  0.08721  0.06643  1.20164  0.002762  0.001119  0.027639     2.468
   0.94079  0.07568  0.06209  1.19122  0.002493  0.001032  0.032062     2.415
   0.95221  0.06515  0.05767  1.17301  0.002332  0.000966  0.033746     2.415
   0.96284  0.05550  0.05322  1.15385  0.002197  0.000900  0.034321     2.441
   0.97241  0.04692  0.04898  1.13734  0.002020  0.000826  0.036643     2.445
   0.98081  0.03952  0.04501  1.11968  0.001804  0.000751  0.042182     2.402
   0.98816  0.03319  0.04127  1.09483  0.001656  0.000691  0.045215     2.396
   0.99463  0.02777  0.03774  1.06720  0.001503  0.000634  0.049745     2.371
   1.00034  0.02313  0.03441  1.03381  0.001379  0.000585  0.053234     2.358
   1.00542  0.01915  0.03125  0.99609  0.001268  0.000541  0.056447     2.345
   1.00996  0.01574  0.02825  0.95375  0.001167  0.000501  0.059507     2.332
   1.01405  0.01281  0.02541  0.90678  0.001080  0.000464  0.061175     2.331
   1.01775  0.01030  0.02269  0.85366  0.000980  0.000428  0.065932     2.291
   1.02112  0.00816  0.02007  0.78911  0.000920  0.000403  0.065326     2.283
   1.02423  0.00634  0.01756  0.72148  0.000869  0.000379  0.062732     2.293
   1.02710  0.00481  0.01513  0.64867  0.000798  0.000353  0.063103     2.263
   1.02975  0.00353  0.01281  0.56390  0.000758  0.000338  0.058818     2.243
   1.03221  0.00250  0.01057  0.47610  0.000737  0.000327  0.050551     2.254
   1.03452  0.00166  0.00842  0.39255  0.000684  0.000297  0.043111     2.299
   1.03670  0.00100  0.00634  0.28783  0.000609  0.000279  0.039512     2.180
   1.03878  0.00049  0.00433  0.17662  0.000677  0.000298  0.020108     2.271
   1.04077  0.00014  0.00237  0.07313  0.000557  0.000250  0.010505     2.230
   1.04268 -0.00001  0.00047 -0.05624  0.000557  0.000250  0.008087     2.230
   1.04452  0.00009 -0.00138 -0.21789  0.000459  0.000208  0.038672     2.209
   1.04638  0.00049 -0.00318 -0.36733  0.000532  0.000232  0.051916     2.297
   1.04830  0.00119 -0.00498 -0.50546  0.000530  0.000241  0.078266     2.202
   1.05035  0.00220 -0.00676 -0.62761  0.000603  0.000261  0.077786     2.305
   1.05254  0.00351 -0.00851 -0.72305  0.000658  0.000289  0.084185     2.277
   1.05487  0.00512 -0.01021 -0.80469  0.000730  0.000317  0.082276     2.305
   1.05738  0.00701 -0.01184 -0.86440  0.000831  0.000354  0.074787     2.345
   1.06008  0.00920 -0.01343 -0.90486  0.000954  0.000400  0.065586     2.384
   1.06301  0.01168 -0.01499 -0.93524  0.001071  0.000447  0.059695     2.396
   1.06622  0.01448 -0.01656 -0.96154  0.001181  0.000493  0.055604     2.397
   1.06978  0.01766 -0.01815 -0.98441  0.001299  0.000540  0.051271     2.407
   1.07377  0.02129 -0.01981 -1.00419  0.001425  0.000589  0.047180     2.417
   1.07825  0.02543 -0.02154 -1.02451  0.001529  0.000636  0.045426     2.404
   1.08332  0.03017 -0.02333 -1.04465  0.001644  0.000684  0.043137     2.403
   1.08907  0.03561 -0.02519 -1.06430  0.001766  0.000735  0.040861     2.404
   1.09564  0.04190 -0.02708 -1.08024  0.001934  0.000795  0.036863     2.431
   1.10320  0.04922 -0.02900 -1.09279  0.002123  0.000865  0.033139     2.455
   1.11196  0.05776 -0.03093 -1.10075  0.002363  0.000948  0.028848     2.492
   1.12207  0.06768 -0.03288 -1.10583  0.002617  0.001040  0.025503     2.516
   1.13350  0.07895 -0.03481 -1.11067  0.002849  0.001133  0.023549     2.515
   1.14613  0.09144 -0.03664 -1.11420  0.003108  0.001230  0.021408     2.526
   1.15994  0.10515 -0.03835 -1.11534  0.003410  0.001337  0.018999     2.551
   1.17469  0.11981 -0.03996 -1.11747  0.003643  0.001434  0.018040     2.540
   1.18993  0.13498 -0.04141 -1.12003  0.003862  0.001526  0.017228     2.531
   1.20552  0.15051 -0.04267 -1.12240  0.004085  0.001615  0.016361     2.529
   1.22143  0.16639 -0.04375 -1.12419  0.004316  0.001703  0.015434     2.533
   1.23764  0.18258 -0.04467 -1.12544  0.004548  0.001791  0.014555     2.540
   1.25400  0.19892 -0.04546 -1.12702  0.004745  0.001871  0.014038     2.536
   1.27036  0.21526 -0.04609 -1.12909  0.004912  0.001945  0.013735     2.526
   1.28677  0.23166 -0.04656 -1.13022  0.005122  0.002022  0.013072     2.534
   1.30335  0.24824 -0.04689 -1.13121  0.005320  0.002097  0.012540     2.538
   1.32002  0.26491 -0.04711 -1.13229  0.005500  0.002168  0.012148     2.537
   1.33663  0.28153 -0.04721 -1.13354  0.005660  0.002234  0.011868     2.533
   1.35321  0.29810 -0.04717 -1.13425  0.005847  0.002303  0.011426     2.539
   1.36986  0.31475 -0.04699 -1.13472  0.006034  0.002371  0.011007     2.545
   1.38656  0.33145 -0.04670 -1.13510  0.006214  0.002438  0.010641     2.549
   1.40323  0.34811 -0.04629 -1.13531  0.006393  0.002503  0.010291     2.554
   1.41985  0.36473 -0.04576 -1.13512  0.006588  0.002570  0.009882     2.563
   1.43647  0.38133 -0.04510 -1.13459  0.006793  0.002638  0.009452     2.575
   1.45309  0.39793 -0.04431 -1.13366  0.007013  0.002708  0.008996     2.590
   1.46972  0.41453 -0.04339 -1.13222  0.007257  0.002781  0.008484     2.610
   1.48633  0.43111 -0.04234 -1.13043  0.007512  0.002855  0.007981     2.632
   1.50291  0.44765 -0.04116 -1.12816  0.007793  0.002932  0.007437     2.658
   1.51945  0.46414 -0.03985 -1.12533  0.008113  0.003013  0.006836     2.693
   1.53596  0.48059 -0.03840 -1.12195  0.008475  0.003099  0.006190     2.735
   1.55247  0.49701 -0.03680 -1.11795  0.008901  0.003191  0.005472     2.790
   1.56903  0.51348 -0.03504 -1.11341  0.009395  0.003288  0.004711     2.857
   1.58574  0.53008 -0.03313 -1.10844  0.009963  0.003390  0.003932     2.939
   1.60264  0.54687 -0.03109 -1.10331  0.010578  0.003495  0.003210     3.027
   1.61973  0.56382 -0.02896 -1.09821  0.011219  0.003598  0.002579     3.118
   1.63695  0.58089 -0.02675 -1.09324  0.011873  0.003700  0.002039     3.209
   1.65426  0.59806 -0.02449 -1.08845  0.012532  0.003800  0.001588     3.298
   1.67164  0.61529 -0.02221 -1.08390  0.013173  0.003896  0.001225     3.381
   1.68905  0.63255 -0.01994 -1.07960  0.013784  0.003989  0.000943     3.455
   1.70644  0.64979 -0.01769 -1.07552  0.014361  0.004079  0.000724     3.521
   1.72377  0.66698 -0.01547 -1.07166  0.014900  0.004166  0.000557     3.576
   1.74101  0.68409 -0.01330 -1.06800  0.015396  0.004251  0.000431     3.622
   1.75815  0.70109 -0.01119 -1.06454  0.015833  0.004332  0.000347     3.655
   1.77520  0.71802 -0.00917 -1.06125  0.016204  0.004411  0.000300     3.674
   1.79217  0.73488 -0.00723 -1.05811  0.016508  0.004488  0.000284     3.678
   1.80907  0.75168 -0.00538 -1.05513  0.016736  0.004563  0.000299     3.668
   1.82588  0.76841 -0.00365 -1.05231  0.016891  0.004635  0.000343     3.644
   1.84259  0.78504 -0.00203 -1.04964  0.016959  0.004704  0.000420     3.605
   1.85920  0.80157 -0.00054 -1.04716  0.016939  0.004770  0.000532     3.551
   1.87568  0.81800  0.00080 -1.04490  0.016821  0.004832  0.000689     3.481
   1.89204  0.83432  0.00198 -1.04292  0.016600  0.004888  0.000899     3.396
   1.90829  0.85054  0.00299 -1.04133  0.016269  0.004936  0.001176     3.296
   1.92442  0.86665  0.00381 -1.04026  0.015826  0.004973  0.001534     3.183
   1.94041  0.88262  0.00443 -1.03990  0.015278  0.004995  0.001987     3.059
   1.95619  0.89840  0.00486 -1.04050  0.014625  0.004997  0.002559     2.927
   1.97170  0.91391  0.00506 -1.04243  0.013865  0.004973  0.003283     2.788
   1.98685  0.92905  0.00502 -1.04615  0.012998  0.004916  0.004204     2.644
   2.00150  0.94370  0.00473 -1.05232  0.012029  0.004817  0.005389     2.497
   2.01546  0.95766  0.00418 -1.06170  0.010972  0.004669  0.006923     2.350
   2.02853  0.97070  0.00337 -1.07538  0.009838  0.004464  0.008956     2.204
   2.04056  0.98268  0.00230 -1.09484  0.008644  0.004196  0.011717     2.060
   2.05143  0.99347  0.00100 -1.12272  0.007389  0.003854  0.015687     1.917
   2.05803  1.00000  0.00000 -1.11690  0.007870  0.003973  0.013970     1.981
   2.05803  1.00010 -0.00002  1.11690  0.163345  0.007399  0.000000    22.076
   2.06467  1.00659 -0.00141  1.11406  0.158913  0.007849  0.000000    20.246
   2.07243  1.01423 -0.00277  1.11088  0.156944  0.008347  0.000000    18.803
   2.08150  1.02319 -0.00418  1.10711  0.154984  0.008937  0.000000    17.343
   2.09210  1.03368 -0.00566  1.10257  0.152895  0.009646  0.000000    15.850
   2.10448  1.04596 -0.00725  1.09713  0.150521  0.010496  0.000000    14.340
   2.11896  1.06034 -0.00892  1.09062  0.147735  0.011517  0.000000    12.828
   2.13587  1.07716 -0.01070  1.08280  0.144403  0.012745  0.000000    11.330
   2.15564  1.09684 -0.01258  1.07338  0.140374  0.014228  0.000000     9.866
   2.17875  1.11987 -0.01455  1.06197  0.135470  0.016029  0.000000     8.452
   2.20575  1.14679 -0.01659  1.04806  0.129488  0.018234  0.000000     7.101
   2.23731  1.17828 -0.01870  1.03100  0.122198  0.020953  0.000000     5.832
   2.27420  1.21510 -0.02083  1.00931  0.113422  0.024436  0.000000     4.642
   2.31730  1.25816 -0.02295  0.98173  0.103055  0.028937  0.000000     3.561
   2.36768  1.30850 -0.02502  0.95767  0.090917  0.032891  0.000000     2.764
   2.42656  1.36734 -0.02695  0.94107  0.077890  0.035568  0.000000     2.190
   2.49537  1.43613 -0.02866  0.93484  0.065395  0.036523  0.000000     1.791
   2.57580  1.51654 -0.03005  0.93829  0.054834  0.036035  0.000000     1.522
   2.66978  1.61053 -0.03098  0.94750  0.046854  0.034847  0.000000     1.345
   2.77963  1.72037 -0.03129  0.95820  0.041249  0.033585  0.000000     1.228
   2.90801  1.84875 -0.03079  0.96793  0.037432  0.032519  0.000000     1.151
   3.05804  1.99878 -0.02924  0.98246  0.034081  0.031041  0.000000     1.098
