#    s        x        y     Ue/Vinf    Dstar     Theta      Cf       H
   0.00000  1.00000  0.00000  1.11089  0.149791  0.003488 -0.000271    42.940
   0.00667  0.99364  0.00201  1.11076  0.146396  0.003510 -0.000883    41.710
   0.01801  0.98283  0.00544  1.11072  0.143001  0.003519 -0.000881    40.636
   0.03089  0.97055  0.00931  1.11069  0.139271  0.003528 -0.000879    39.472
   0.04491  0.95712  0.01335  1.11066  0.135407  0.003536 -0.000877    38.290
   0.05974  0.94286  0.01740  1.11065  0.131522  0.003543 -0.000876    37.123
   0.07527  0.92786  0.02141  1.11066  0.127651  0.003548 -0.000876    35.981
   0.09142  0.91220  0.02541  1.11067  0.123746  0.003552 -0.000875    34.842
   0.10802  0.89609  0.02942  1.11069  0.119776  0.003555 -0.000875    33.689
   0.12488  0.87971  0.03341  1.11071  0.115755  0.003559 -0.000875    32.522
   0.14188  0.86318  0.03738  1.11073  0.111693  0.003564 -0.000874    31.343
   0.15896  0.84656  0.04130  1.11074  0.107601  0.003568 -0.000874    30.155
   0.17607  0.82989  0.04517  1.11075  0.103487  0.003573 -0.000873    28.961
   0.19318  0.81321  0.04899  1.11075  0.099359  0.003579 -0.000873    27.763
   0.21029  0.79652  0.05273  1.11076  0.095225  0.003585 -0.000873    26.565
   0.22743  0.77978  0.05643  1.11076  0.091075  0.003590 -0.000872    25.366
   0.24453  0.76308  0.06007  1.11076  0.086912  0.003597 -0.000872    24.164
   0.26151  0.74647  0.06361  1.11075  0.082771  0.003603 -0.000872    22.972
   0.27839  0.72994  0.06704  1.11075  0.078678  0.003609 -0.000872    21.799
   0.29522  0.71344  0.07036  1.11076  0.074633  0.003615 -0.000873    20.648
   0.31203  0.69694  0.07357  1.11078  0.070633  0.003619 -0.000874    19.516
   0.32881  0.68046  0.07667  1.11081  0.066690  0.003623 -0.000875    18.407
   0.34552  0.66401  0.07965  1.11086  0.062812  0.003626 -0.000877    17.324
   0.36216  0.64761  0.08250  1.11094  0.059013  0.003627 -0.000880    16.271
   0.37877  0.63123  0.08521  1.11105  0.055307  0.003626 -0.000883    15.252
   0.39539  0.61480  0.08779  1.11121  0.051682  0.003623 -0.000888    14.264
   0.41202  0.59836  0.09025  1.11143  0.048133  0.003618 -0.000894    13.303
   0.42857  0.58198  0.09257  1.11171  0.044683  0.003610 -0.000902    12.376
   0.44503  0.56566  0.09473  1.11209  0.041351  0.003599 -0.000911    11.488
   0.46148  0.54933  0.09674  1.11259  0.038149  0.003584 -0.000923    10.643
   0.47798  0.53293  0.09860  1.11325  0.035052  0.003565 -0.000938     9.833
   0.49446  0.51655  0.10033  1.11408  0.032058  0.003541 -0.000958     9.054
   0.51082  0.50026  0.10190  1.11513  0.029204  0.003512 -0.000982     8.317
   0.52710  0.48404  0.10328  1.11648  0.026518  0.003476 -0.001013     7.629
   0.54339  0.46779  0.10449  1.11820  0.023996  0.003433 -0.001053     6.990
   0.55971  0.45151  0.10554  1.12038  0.021612  0.003383 -0.001104     6.389
   0.57600  0.43525  0.10643  1.12311  0.019365  0.003324 -0.001167     5.826
   0.59218  0.41907  0.10713  1.12652  0.017303  0.003256 -0.001210     5.315
   0.60829  0.40298  0.10765  1.13075  0.015435  0.003178 -0.001186     4.857
   0.62434  0.38693  0.10796  1.13589  0.013746  0.003091 -0.001000     4.448
   0.64042  0.37085  0.10808  1.14195  0.012234  0.002994 -0.000562     4.086
   0.65651  0.35476  0.10800  1.14892  0.010903  0.002889  0.000170     3.773
   0.67249  0.33878  0.10774  1.15693  0.009707  0.002775  0.001247     3.499
   0.68825  0.32303  0.10727  1.16573  0.008690  0.002653  0.002580     3.276
   0.70393  0.30737  0.10654  1.17486  0.007863  0.002529  0.004001     3.109
   0.71975  0.29158  0.10557  1.18392  0.007183  0.002407  0.005433     2.984
   0.73559  0.27578  0.10439  1.19292  0.006556  0.002284  0.007108     2.870
   0.75115  0.26028  0.10302  1.20129  0.005990  0.002166  0.009020     2.766
   0.76650  0.24502  0.10139  1.20788  0.005551  0.002059  0.010689     2.696
   0.78192  0.22972  0.09944  1.21262  0.005216  0.001963  0.011955     2.658
   0.79744  0.21436  0.09725  1.21667  0.004887  0.001866  0.013407     2.618
   0.81279  0.19920  0.09484  1.21978  0.004560  0.001771  0.015152     2.574
   0.82793  0.18429  0.09217  1.22060  0.004301  0.001686  0.016482     2.552
   0.84302  0.16950  0.08922  1.22015  0.004061  0.001602  0.017774     2.535
   0.85806  0.15481  0.08599  1.21855  0.003826  0.001518  0.019140     2.521
   0.87291  0.14036  0.08253  1.21572  0.003597  0.001434  0.020562     2.509
   0.88737  0.12638  0.07886  1.21216  0.003326  0.001345  0.023052     2.473
   0.90140  0.11290  0.07496  1.20457  0.003120  0.001267  0.024685     2.462
   0.91519  0.09977  0.07076  1.19489  0.002943  0.001191  0.025705     2.472
   0.92848  0.08721  0.06643  1.18533  0.002723  0.001106  0.027853     2.461
   0.94079  0.07568  0.06209  1.17371  0.002450  0.001019  0.032526     2.404
   0.95221  0.06515  0.05767  1.15342  0.002295  0.000954  0.034086     2.404
   0.96284  0.05550  0.05322  1.13230  0.002164  0.000890  0.034561     2.431
   0.97241  0.04692  0.04898  1.11375  0.001982  0.000816  0.037216     2.428
   0.98081  0.03952  0.04501  1.09309  0.001782  0.000744  0.042016     2.394
   0.98816  0.03319  0.04127  1.06640  0.001637  0.000685  0.044831     2.390
   0.99463  0.02777  0.03774  1.03704  0.001486  0.000628  0.049128     2.367
   1.00034  0.02313  0.03441  1.00183  0.001360  0.000579  0.052657     2.351
   1.00542  0.01915  0.03125  0.96155  0.001249  0.000535  0.055852     2.335
   1.00996  0.01574  0.02825  0.91630  0.001154  0.000496  0.058042     2.327
   1.01405  0.01281  0.02541  0.86627  0.001061  0.000459  0.060592     2.311
   1.01775  0.01030  0.02269  0.80856  0.000978  0.000428  0.062762     2.287
   1.02112  0.00816  0.02007  0.74386  0.000922  0.000403  0.061025     2.291
   1.02423  0.00634  0.01756  0.67585  0.000856  0.000375  0.060219     2.282
   1.02710  0.00481  0.01513  0.60054  0.000795  0.000350  0.058128     2.272
   1.02975  0.00353  0.01281  0.51424  0.000741  0.000332  0.055266     2.234
   1.03221  0.00250  0.01057  0.42120  0.000731  0.000326  0.045424     2.246
   1.03452  0.00166  0.00842  0.33546  0.000674  0.000292  0.037149     2.305
   1.03670  0.00100  0.00634  0.22567  0.000598  0.000276  0.031866     2.169
   1.03878  0.00049  0.00433  0.11638  0.000737  0.000325  0.012227     2.265
   1.04077  0.00014  0.00237  0.01640  0.000509  0.000228  0.002579     2.230
   1.04268 -0.00001  0.00047 -0.13853  0.000509  0.000228  0.021782     2.230
   1.04452  0.00009 -0.00138 -0.28808  0.000511  0.000229  0.045091     2.230
   1.04638  0.00049 -0.00318 -0.43647  0.000513  0.000230  0.067996     2.231
   1.04830  0.00119 -0.00498 -0.57860  0.000536  0.000238  0.084797     2.249
   1.05035  0.00220 -0.00676 -0.69376  0.000603  0.000263  0.086924     2.293
   1.05254  0.00351 -0.00851 -0.79054  0.000655  0.000287  0.092143     2.281
   1.05487  0.00512 -0.01021 -0.86359  0.000751  0.000321  0.083300     2.337
   1.05738  0.00701 -0.01184 -0.91883  0.000839  0.000358  0.078916     2.343
   1.06008  0.00920 -0.01343 -0.95481  0.000975  0.000405  0.066280     2.406
   1.06301  0.01168 -0.01499 -0.98280  0.001082  0.000451  0.061810     2.401
   1.06622  0.01448 -0.01656 -1.00599  0.001202  0.000498  0.056142     2.415
   1.06978  0.01766 -0.01815 -1.02550  0.001325  0.000546  0.051424     2.425
   1.07377  0.02129 -0.01981 -1.04189  0.001457  0.000598  0.046884     2.438
   1.07825  0.02543 -0.02154 -1.06063  0.001551  0.000643  0.046085     2.411
   1.08332  0.03017 -0.02333 -1.07747  0.001685  0.000695  0.042490     2.425
   1.08907  0.03561 -0.02519 -1.09450  0.001805  0.000746  0.040528     2.419
   1.09564  0.04190 -0.02708 -1.10896  0.001965  0.000806  0.036971     2.439
   1.10320  0.04922 -0.02900 -1.11954  0.002164  0.000876  0.032849     2.469
   1.11196  0.05776 -0.03093 -1.12579  0.002406  0.000960  0.028568     2.506
   1.12207  0.06768 -0.03288 -1.12901  0.002669  0.001053  0.025055     2.534
   1.13350  0.07895 -0.03481 -1.13179  0.002913  0.001148  0.022939     2.537
   1.14613  0.09144 -0.03664 -1.13369  0.003173  0.001247  0.020912     2.545
   1.15994  0.10515 -0.03835 -1.13361  0.003475  0.001354  0.018619     2.567
   1.17469  0.11981 -0.03996 -1.13435  0.003719  0.001453  0.017567     2.559
   1.18993  0.13498 -0.04141 -1.13571  0.003942  0.001546  0.016773     2.549
   1.20552  0.15051 -0.04267 -1.13697  0.004170  0.001637  0.015915     2.547
   1.22143  0.16639 -0.04375 -1.13764  0.004410  0.001727  0.014957     2.553
   1.23764  0.18258 -0.04467 -1.13836  0.004631  0.001814  0.014248     2.553
   1.25400  0.19892 -0.04546 -1.13900  0.004844  0.001897  0.013625     2.554
   1.27036  0.21526 -0.04609 -1.14050  0.005006  0.001970  0.013395     2.541
   1.28677  0.23166 -0.04656 -1.14084  0.005230  0.002050  0.012675     2.551
   1.30335  0.24824 -0.04689 -1.14128  0.005428  0.002125  0.012184     2.554
   1.32002  0.26491 -0.04711 -1.14182  0.005610  0.002197  0.011804     2.553
   1.33663  0.28153 -0.04721 -1.14247  0.005779  0.002266  0.011499     2.550
   1.35321  0.29810 -0.04717 -1.14285  0.005958  0.002334  0.011128     2.553
   1.36986  0.31475 -0.04699 -1.14269  0.006163  0.002405  0.010639     2.563
   1.38656  0.33145 -0.04670 -1.14263  0.006345  0.002473  0.010290     2.566
   1.40323  0.34811 -0.04629 -1.14241  0.006529  0.002539  0.009943     2.571
   1.41985  0.36473 -0.04576 -1.14186  0.006727  0.002607  0.009549     2.580
   1.43647  0.38133 -0.04510 -1.14088  0.006944  0.002677  0.009098     2.594
   1.45309  0.39793 -0.04431 -1.13952  0.007175  0.002748  0.008629     2.611
   1.46972  0.41453 -0.04339 -1.13776  0.007425  0.002822  0.008131     2.631
   1.48633  0.43111 -0.04234 -1.13555  0.007697  0.002898  0.007603     2.656
   1.50291  0.44765 -0.04116 -1.13296  0.007990  0.002977  0.007064     2.684
   1.51945  0.46414 -0.03985 -1.12979  0.008329  0.003060  0.006452     2.721
   1.53596  0.48059 -0.03840 -1.12618  0.008703  0.003147  0.005821     2.765
   1.55247  0.49701 -0.03680 -1.12189  0.009160  0.003241  0.005083     2.826
   1.56903  0.51348 -0.03504 -1.11718  0.009676  0.003340  0.004338     2.897
   1.58574  0.53008 -0.03313 -1.11208  0.010275  0.003443  0.003567     2.984
   1.60264  0.54687 -0.03109 -1.10689  0.010920  0.003547  0.002862     3.079
   1.61973  0.56382 -0.02896 -1.10176  0.011597  0.003651  0.002242     3.177
   1.63695  0.58089 -0.02675 -1.09680  0.012288  0.003752  0.001718     3.275
   1.65426  0.59806 -0.02449 -1.09206  0.012985  0.003850  0.001282     3.372
   1.67164  0.61529 -0.02221 -1.08757  0.013665  0.003945  0.000934     3.464
   1.68905  0.63255 -0.01994 -1.08333  0.014318  0.004037  0.000663     3.547
   1.70644  0.64979 -0.01769 -1.07932  0.014935  0.004126  0.000455     3.620
   1.72377  0.66698 -0.01547 -1.07554  0.015510  0.004211  0.000297     3.683
   1.74101  0.68409 -0.01330 -1.07195  0.016042  0.004294  0.000181     3.736
   1.75815  0.70109 -0.01119 -1.06855  0.016514  0.004374  0.000101     3.775
   1.77520  0.71802 -0.00917 -1.06532  0.016916  0.004452  0.000056     3.799
   1.79217  0.73488 -0.00723 -1.06223  0.017246  0.004528  0.000039     3.808
   1.80907  0.75168 -0.00538 -1.05927  0.017497  0.004603  0.000050     3.802
   1.82588  0.76841 -0.00365 -1.05644  0.017674  0.004675  0.000084     3.781
   1.84259  0.78504 -0.00203 -1.05375  0.017754  0.004745  0.000150     3.742
   1.85920  0.80157 -0.00054 -1.05121  0.017746  0.004812  0.000246     3.687
   1.87568  0.81800  0.00080 -1.04884  0.017631  0.004876  0.000383     3.615
   1.89204  0.83432  0.00198 -1.04670  0.017409  0.004936  0.000568     3.527
   1.90829  0.85054  0.00299 -1.04487  0.017070  0.004989  0.000815     3.422
   1.92442  0.86665  0.00381 -1.04347  0.016612  0.005032  0.001139     3.301
   1.94041  0.88262  0.00443 -1.04268  0.016042  0.005061  0.001555     3.169
   1.95619  0.89840  0.00486 -1.04276  0.015361  0.005073  0.002086     3.028
   1.97170  0.91391  0.00506 -1.04405  0.014566  0.005059  0.002762     2.879
   1.98685  0.92905  0.00502 -1.04702  0.013658  0.005012  0.003630     2.725
   2.00150  0.94370  0.00473 -1.05229  0.012644  0.004924  0.004747     2.568
   2.01546  0.95766  0.00418 -1.06062  0.011538  0.004787  0.006195     2.411
   2.02853  0.97070  0.00337 -1.07304  0.010355  0.004591  0.008105     2.255
   2.04056  0.98268  0.00230 -1.09090  0.009114  0.004332  0.010680     2.104
   2.05143  0.99347  0.00100 -1.11645  0.007822  0.003999  0.014316     1.956
   2.05803  1.00000  0.00000 -1.11089  0.008308  0.004116  0.012781     2.019
   2.05803  1.00010 -0.00002  1.11089  0.158099  0.007604  0.000000    20.791
   2.06467  1.00659 -0.00141  1.10806  0.153571  0.008042  0.000000    19.096
   2.07243  1.01423 -0.00277  1.10490  0.151532  0.008525  0.000000    17.774
   2.08150  1.02318 -0.00419  1.10115  0.149500  0.009098  0.000000    16.431
   2.09210  1.03367 -0.00569  1.09661  0.147335  0.009789  0.000000    15.051
   2.10448  1.04596 -0.00729  1.09119  0.144879  0.010616  0.000000    13.648
   2.11896  1.06033 -0.00899  1.08468  0.142005  0.011609  0.000000    12.232
   2.13587  1.07715 -0.01079  1.07683  0.138581  0.012806  0.000000    10.822
   2.15564  1.09683 -0.01271  1.06736  0.134455  0.014254  0.000000     9.432
   2.17875  1.11985 -0.01472  1.05585  0.129452  0.016017  0.000000     8.082
   2.20575  1.14677 -0.01683  1.04175  0.123374  0.018183  0.000000     6.785
   2.23731  1.17825 -0.01902  1.02431  0.116006  0.020872  0.000000     5.558
   2.27420  1.21507 -0.02126  1.00187  0.107199  0.024361  0.000000     4.401
   2.31730  1.25812 -0.02351  0.97508  0.096800  0.028580  0.000000     3.387
   2.36768  1.30845 -0.02574  0.95280  0.084824  0.032091  0.000000     2.643
   2.42656  1.36729 -0.02788  0.93849  0.072252  0.034287  0.000000     2.107
   2.49537  1.43607 -0.02986  0.93452  0.060495  0.034862  0.000000     1.735
   2.57580  1.51647 -0.03158  0.93954  0.050798  0.034194  0.000000     1.486
   2.66978  1.61045 -0.03292  0.94939  0.043606  0.033003  0.000000     1.321
   2.77963  1.72029 -0.03373  0.96003  0.038605  0.031823  0.000000     1.213
   2.90801  1.84867 -0.03385  0.96943  0.035213  0.030853  0.000000     1.141
   3.05804  1.99870 -0.03307  0.98287  0.032276  0.029558  0.000000     1.092
