#    s        x        y     Ue/Vinf    Dstar     Theta      Cf       H
   0.00000  1.00000  0.00000  1.11492  0.153560  0.003447 -0.000273    44.548
   0.00667  0.99364  0.00201  1.11478  0.150165  0.003468 -0.000896    43.298
   0.01801  0.98283  0.00544  1.11475  0.146747  0.003477 -0.000894    42.204
   0.03089  0.97055  0.00931  1.11472  0.142985  0.003486 -0.000892    41.015
   0.04491  0.95712  0.01335  1.11470  0.139085  0.003494 -0.000891    39.806
   0.05974  0.94286  0.01740  1.11469  0.135159  0.003500 -0.000889    38.612
   0.07527  0.92786  0.02141  1.11469  0.131242  0.003505 -0.000889    37.443
   0.09142  0.91220  0.02541  1.11471  0.127287  0.003509 -0.000888    36.275
   0.10802  0.89609  0.02942  1.11473  0.123266  0.003513 -0.000888    35.092
   0.12488  0.87971  0.03341  1.11475  0.119189  0.003517 -0.000888    33.893
   0.14188  0.86318  0.03738  1.11476  0.115071  0.003521 -0.000887    32.682
   0.15896  0.84656  0.04130  1.11477  0.110919  0.003526 -0.000887    31.460
   0.17607  0.82989  0.04517  1.11478  0.106744  0.003531 -0.000886    30.230
   0.19318  0.81321  0.04899  1.11479  0.102553  0.003537 -0.000886    28.996
   0.21029  0.79652  0.05273  1.11479  0.098354  0.003543 -0.000885    27.762
   0.22743  0.77978  0.05643  1.11479  0.094137  0.003549 -0.000885    26.524
   0.24453  0.76308  0.06007  1.11478  0.089905  0.003556 -0.000884    25.283
   0.26151  0.74647  0.06361  1.11477  0.085692  0.003563 -0.000884    24.052
   0.27839  0.72994  0.06704  1.11476  0.081529  0.003569 -0.000884    22.841
   0.29522  0.71344  0.07036  1.11476  0.077408  0.003576 -0.000884    21.649
   0.31203  0.69694  0.07357  1.11476  0.073334  0.003581 -0.000884    20.478
   0.32881  0.68046  0.07667  1.11478  0.069312  0.003586 -0.000885    19.329
   0.34552  0.66401  0.07965  1.11481  0.065355  0.003590 -0.000887    18.206
   0.36216  0.64761  0.08250  1.11487  0.061472  0.003592 -0.000889    17.113
   0.37877  0.63123  0.08521  1.11495  0.057681  0.003593 -0.000892    16.054
   0.39539  0.61480  0.08779  1.11508  0.053972  0.003592 -0.000896    15.026
   0.41202  0.59836  0.09025  1.11525  0.050332  0.003589 -0.000901    14.026
   0.42857  0.58198  0.09257  1.11549  0.046790  0.003583 -0.000908    13.059
   0.44503  0.56566  0.09473  1.11580  0.043366  0.003574 -0.000916    12.133
   0.46148  0.54933  0.09674  1.11622  0.040067  0.003562 -0.000926    11.249
   0.47798  0.53293  0.09860  1.11678  0.036872  0.003545 -0.000940    10.400
   0.49446  0.51655  0.10033  1.11749  0.033780  0.003525 -0.000956     9.584
   0.51082  0.50026  0.10190  1.11840  0.030818  0.003499 -0.000977     8.808
   0.52710  0.48404  0.10328  1.11957  0.028029  0.003468 -0.001004     8.083
   0.54339  0.46779  0.10449  1.12107  0.025400  0.003429 -0.001039     7.407
   0.55971  0.45151  0.10554  1.12297  0.022897  0.003383 -0.001084     6.767
   0.57600  0.43525  0.10643  1.12537  0.020542  0.003330 -0.001142     6.169
   0.59218  0.41907  0.10713  1.12840  0.018370  0.003267 -0.001206     5.622
   0.60829  0.40298  0.10765  1.13218  0.016380  0.003195 -0.001229     5.126
   0.62434  0.38693  0.10796  1.13685  0.014587  0.003113 -0.001151     4.685
   0.64042  0.37085  0.10808  1.14250  0.012965  0.003021 -0.000863     4.292
   0.65651  0.35476  0.10800  1.14905  0.011514  0.002921 -0.000280     3.942
   0.67249  0.33878  0.10774  1.15660  0.010234  0.002811  0.000637     3.640
   0.68825  0.32303  0.10727  1.16513  0.009116  0.002693  0.001884     3.385
   0.70393  0.30737  0.10654  1.17424  0.008211  0.002570  0.003256     3.195
   0.71975  0.29158  0.10557  1.18355  0.007465  0.002446  0.004685     3.052
   0.73559  0.27578  0.10439  1.19297  0.006783  0.002321  0.006368     2.923
   0.75115  0.26028  0.10302  1.20189  0.006175  0.002199  0.008285     2.808
   0.76650  0.24502  0.10139  1.20922  0.005701  0.002089  0.009996     2.729
   0.78192  0.22972  0.09944  1.21483  0.005335  0.001989  0.011363     2.683
   0.79744  0.21436  0.09725  1.21960  0.004991  0.001890  0.012824     2.641
   0.81279  0.19920  0.09484  1.22351  0.004648  0.001792  0.014597     2.593
   0.82793  0.18429  0.09217  1.22520  0.004376  0.001704  0.015977     2.568
   0.84302  0.16950  0.08922  1.22571  0.004115  0.001617  0.017432     2.545
   0.85806  0.15481  0.08599  1.22461  0.003886  0.001533  0.018661     2.534
   0.87291  0.14036  0.08253  1.22279  0.003646  0.001447  0.020183     2.519
   0.88737  0.12638  0.07886  1.22006  0.003371  0.001357  0.022626     2.484
   0.90140  0.11290  0.07496  1.21364  0.003151  0.001277  0.024495     2.467
   0.91519  0.09977  0.07076  1.20453  0.002983  0.001201  0.025253     2.483
   0.92848  0.08721  0.06643  1.19639  0.002748  0.001114  0.027727     2.466
   0.94079  0.07568  0.06209  1.18556  0.002477  0.001028  0.032269     2.410
   0.95221  0.06515  0.05767  1.16653  0.002316  0.000962  0.034012     2.409
   0.96284  0.05550  0.05322  1.14645  0.002196  0.000898  0.033983     2.445
   0.97241  0.04692  0.04898  1.13004  0.001993  0.000821  0.037543     2.428
   0.98081  0.03952  0.04501  1.11009  0.001810  0.000751  0.041345     2.410
   0.98816  0.03319  0.04127  1.08621  0.001647  0.000688  0.045225     2.394
   0.99463  0.02777  0.03774  1.05798  0.001498  0.000631  0.049393     2.374
   1.00034  0.02313  0.03441  1.02393  0.001361  0.000581  0.054171     2.343
   1.00542  0.01915  0.03125  0.98373  0.001270  0.000540  0.055431     2.350
   1.00996  0.01574  0.02825  0.94158  0.001158  0.000498  0.059590     2.325
   1.01405  0.01281  0.02541  0.89233  0.001073  0.000463  0.061254     2.319
   1.01775  0.01030  0.02269  0.83757  0.000985  0.000429  0.064048     2.295
   1.02112  0.00816  0.02007  0.77446  0.000921  0.000403  0.063849     2.287
   1.02423  0.00634  0.01756  0.70578  0.000861  0.000378  0.062820     2.278
   1.02710  0.00481  0.01513  0.63019  0.000806  0.000356  0.060798     2.261
   1.02975  0.00353  0.01281  0.54862  0.000767  0.000339  0.055659     2.261
   1.03221  0.00250  0.01057  0.46368  0.000723  0.000320  0.050055     2.256
   1.03452  0.00166  0.00842  0.37220  0.000678  0.000301  0.043100     2.251
   1.03670  0.00100  0.00634  0.27172  0.000635  0.000283  0.033766     2.245
   1.03878  0.00049  0.00433  0.15971  0.000596  0.000267  0.021341     2.234
   1.04077  0.00014  0.00237  0.03863  0.000574  0.000257  0.005386     2.230
   1.04268 -0.00001  0.00047 -0.08304  0.000574  0.000258  0.011577     2.230
   1.04452  0.00009 -0.00138 -0.23549  0.000475  0.000216  0.040629     2.202
   1.04638  0.00049 -0.00318 -0.39005  0.000515  0.000226  0.057968     2.277
   1.04830  0.00119 -0.00498 -0.52748  0.000537  0.000241  0.078725     2.229
   1.05035  0.00220 -0.00676 -0.64899  0.000596  0.000261  0.082699     2.286
   1.05254  0.00351 -0.00851 -0.74663  0.000656  0.000287  0.086590     2.285
   1.05487  0.00512 -0.01021 -0.82395  0.000739  0.000319  0.082145     2.319
   1.05738  0.00701 -0.01184 -0.88205  0.000833  0.000356  0.076311     2.342
   1.06008  0.00920 -0.01343 -0.92306  0.000952  0.000400  0.067254     2.381
   1.06301  0.01168 -0.01499 -0.95071  0.001086  0.000450  0.058753     2.415
   1.06622  0.01448 -0.01656 -0.97762  0.001175  0.000492  0.057406     2.387
   1.06978  0.01766 -0.01815 -0.99784  0.001319  0.000543  0.050080     2.428
   1.07377  0.02129 -0.01981 -1.01702  0.001430  0.000592  0.047630     2.417
   1.07825  0.02543 -0.02154 -1.03644  0.001540  0.000639  0.045363     2.410
   1.08332  0.03017 -0.02333 -1.05542  0.001659  0.000688  0.042908     2.410
   1.08907  0.03561 -0.02519 -1.07377  0.001784  0.000740  0.040498     2.412
   1.09564  0.04190 -0.02708 -1.08944  0.001943  0.000799  0.037004     2.431
   1.10320  0.04922 -0.02900 -1.10154  0.002135  0.000869  0.033128     2.458
   1.11196  0.05776 -0.03093 -1.10901  0.002376  0.000952  0.028790     2.496
   1.12207  0.06768 -0.03288 -1.11387  0.002627  0.001043  0.025552     2.518
   1.13350  0.07895 -0.03481 -1.11773  0.002874  0.001138  0.023245     2.525
   1.14613  0.09144 -0.03664 -1.12055  0.003133  0.001236  0.021172     2.534
   1.15994  0.10515 -0.03835 -1.12119  0.003435  0.001343  0.018827     2.558
   1.17469  0.11981 -0.03996 -1.12304  0.003664  0.001440  0.017944     2.544
   1.18993  0.13498 -0.04141 -1.12520  0.003888  0.001533  0.017090     2.537
   1.20552  0.15051 -0.04267 -1.12716  0.004113  0.001623  0.016203     2.535
   1.22143  0.16639 -0.04375 -1.12881  0.004338  0.001710  0.015361     2.537
   1.23764  0.18258 -0.04467 -1.12975  0.004577  0.001798  0.014437     2.545
   1.25400  0.19892 -0.04546 -1.13122  0.004769  0.001878  0.013968     2.539
   1.27036  0.21526 -0.04609 -1.13282  0.004950  0.001954  0.013557     2.534
   1.28677  0.23166 -0.04656 -1.13375  0.005158  0.002031  0.012936     2.540
   1.30335  0.24824 -0.04689 -1.13456  0.005356  0.002106  0.012421     2.543
   1.32002  0.26491 -0.04711 -1.13545  0.005536  0.002177  0.012031     2.543
   1.33663  0.28153 -0.04721 -1.13649  0.005700  0.002245  0.011742     2.539
   1.35321  0.29810 -0.04717 -1.13720  0.005878  0.002313  0.011360     2.542
   1.36986  0.31475 -0.04699 -1.13737  0.006077  0.002382  0.010877     2.551
   1.38656  0.33145 -0.04670 -1.13760  0.006257  0.002449  0.010521     2.555
   1.40323  0.34811 -0.04629 -1.13763  0.006440  0.002515  0.010164     2.560
   1.41985  0.36473 -0.04576 -1.13733  0.006635  0.002583  0.009765     2.569
   1.43647  0.38133 -0.04510 -1.13665  0.006843  0.002651  0.009335     2.581
   1.45309  0.39793 -0.04431 -1.13559  0.007066  0.002721  0.008875     2.597
   1.46972  0.41453 -0.04339 -1.13412  0.007305  0.002793  0.008392     2.615
   1.48633  0.43111 -0.04234 -1.13212  0.007574  0.002869  0.007850     2.640
   1.50291  0.44765 -0.04116 -1.12975  0.007857  0.002947  0.007314     2.667
   1.51945  0.46414 -0.03985 -1.12682  0.008181  0.003028  0.006715     2.702
   1.53596  0.48059 -0.03840 -1.12337  0.008548  0.003115  0.006071     2.745
   1.55247  0.49701 -0.03680 -1.11929  0.008981  0.003207  0.005353     2.801
   1.56903  0.51348 -0.03504 -1.11466  0.009487  0.003305  0.004585     2.871
   1.58574  0.53008 -0.03313 -1.10966  0.010060  0.003407  0.003818     2.952
   1.60264  0.54687 -0.03109 -1.10450  0.010688  0.003512  0.003096     3.043
   1.61973  0.56382 -0.02896 -1.09938  0.011341  0.003616  0.002466     3.137
   1.63695  0.58089 -0.02675 -1.09442  0.012004  0.003717  0.001936     3.229
   1.65426  0.59806 -0.02449 -1.08965  0.012677  0.003816  0.001486     3.322
   1.67164  0.61529 -0.02221 -1.08511  0.013330  0.003912  0.001129     3.407
   1.68905  0.63255 -0.01994 -1.08082  0.013957  0.004005  0.000848     3.485
   1.70644  0.64979 -0.01769 -1.07677  0.014544  0.004095  0.000635     3.552
   1.72377  0.66698 -0.01547 -1.07292  0.015096  0.004181  0.000469     3.610
   1.74101  0.68409 -0.01330 -1.06929  0.015600  0.004265  0.000348     3.658
   1.75815  0.70109 -0.01119 -1.06584  0.016052  0.004346  0.000264     3.693
   1.77520  0.71802 -0.00917 -1.06257  0.016432  0.004425  0.000218     3.713
   1.79217  0.73488 -0.00723 -1.05945  0.016744  0.004502  0.000201     3.720
   1.80907  0.75168 -0.00538 -1.05647  0.016979  0.004576  0.000215     3.710
   1.82588  0.76841 -0.00365 -1.05364  0.017141  0.004648  0.000255     3.688
   1.84259  0.78504 -0.00203 -1.05096  0.017212  0.004718  0.000329     3.648
   1.85920  0.80157 -0.00054 -1.04845  0.017196  0.004785  0.000436     3.594
   1.87568  0.81800  0.00080 -1.04616  0.017079  0.004847  0.000586     3.523
   1.89204  0.83432  0.00198 -1.04412  0.016858  0.004905  0.000788     3.437
   1.90829  0.85054  0.00299 -1.04245  0.016524  0.004954  0.001056     3.335
   1.92442  0.86665  0.00381 -1.04127  0.016076  0.004993  0.001403     3.220
   1.94041  0.88262  0.00443 -1.04076  0.015521  0.005017  0.001845     3.093
   1.95619  0.89840  0.00486 -1.04119  0.014859  0.005022  0.002403     2.959
   1.97170  0.91391  0.00506 -1.04291  0.014087  0.005002  0.003112     2.817
   1.98685  0.92905  0.00502 -1.04639  0.013207  0.004948  0.004017     2.669
   2.00150  0.94370  0.00473 -1.05227  0.012224  0.004852  0.005180     2.519
   2.01546  0.95766  0.00418 -1.06131  0.011151  0.004708  0.006686     2.369
   2.02853  0.97070  0.00337 -1.07459  0.010001  0.004506  0.008679     2.220
   2.04056  0.98268  0.00230 -1.09354  0.008792  0.004240  0.011379     2.074
   2.05143  0.99347  0.00100 -1.12066  0.007525  0.003900  0.015240     1.929
   2.05803  1.00000  0.00000 -1.11492  0.008008  0.004019  0.013582     1.993
   2.05803  1.00010 -0.00002  1.11492  0.161568  0.007466  0.000000    21.641
   2.06467  1.00659 -0.00141  1.11208  0.157104  0.007912  0.000000    19.857
   2.07243  1.01423 -0.00277  1.10891  0.155112  0.008404  0.000000    18.456
   2.08150  1.02319 -0.00418  1.10514  0.153127  0.008989  0.000000    17.035
   2.09210  1.03368 -0.00567  1.10060  0.151014  0.009692  0.000000    15.581
   2.10448  1.04596 -0.00726  1.09517  0.148612  0.010534  0.000000    14.107
   2.11896  1.06034 -0.00894  1.08865  0.145797  0.011546  0.000000    12.628
   2.13587  1.07716 -0.01073  1.08082  0.142434  0.012763  0.000000    11.160
   2.15564  1.09684 -0.01262  1.07138  0.138372  0.014235  0.000000     9.720
   2.17875  1.11986 -0.01461  1.05994  0.133434  0.016023  0.000000     8.327
   2.20575  1.14678 -0.01667  1.04597  0.127420  0.018216  0.000000     6.995
   2.23731  1.17827 -0.01880  1.02878  0.120102  0.020924  0.000000     5.740
   2.27420  1.21509 -0.02097  1.00685  0.111314  0.024408  0.000000     4.561
   2.31730  1.25814 -0.02314  0.97945  0.100934  0.028825  0.000000     3.502
   2.36768  1.30848 -0.02526  0.95598  0.088842  0.032631  0.000000     2.723
   2.42656  1.36732 -0.02726  0.94014  0.075960  0.035143  0.000000     2.161
   2.49537  1.43611 -0.02906  0.93468  0.063710  0.035965  0.000000     1.771
   2.57580  1.51652 -0.03056  0.93868  0.053441  0.035410  0.000000     1.509
   2.66978  1.61050 -0.03163  0.94813  0.045732  0.034218  0.000000     1.336
   2.77963  1.72035 -0.03211  0.95881  0.040337  0.032983  0.000000     1.223
   2.90801  1.84872 -0.03181  0.96844  0.036668  0.031950  0.000000     1.148
   3.05804  1.99875 -0.03052  0.98258  0.033463  0.030537  0.000000     1.096
