#    s        x        y     Ue/Vinf    Dstar     Theta      Cf       H
   0.00000  1.00000  0.00000  1.12082  0.159381  0.003385 -0.000276    47.078
   0.00667  0.99364  0.00201  1.12070  0.155985  0.003406 -0.000917    45.796
   0.01801  0.98283  0.00544  1.12067  0.152530  0.003415 -0.000915    44.670
   0.03089  0.97055  0.00931  1.12064  0.148720  0.003423 -0.000913    43.444
   0.04491  0.95712  0.01335  1.12062  0.144763  0.003431 -0.000911    42.195
   0.05974  0.94286  0.01740  1.12062  0.140772  0.003437 -0.000910    40.959
   0.07527  0.92786  0.02141  1.12062  0.136785  0.003441 -0.000909    39.747
   0.09142  0.91220  0.02541  1.12064  0.132754  0.003445 -0.000909    38.535
   0.10802  0.89609  0.02942  1.12066  0.128652  0.003449 -0.000908    37.306
   0.12488  0.87971  0.03341  1.12068  0.124491  0.003452 -0.000908    36.058
   0.14188  0.86318  0.03738  1.12070  0.120286  0.003457 -0.000907    34.796
   0.15896  0.84656  0.04130  1.12071  0.116043  0.003462 -0.000907    33.521
   0.17607  0.82989  0.04517  1.12071  0.111774  0.003467 -0.000906    32.237
   0.19318  0.81321  0.04899  1.12072  0.107487  0.003473 -0.000905    30.947
   0.21029  0.79652  0.05273  1.12071  0.103188  0.003480 -0.000904    29.655
   0.22743  0.77978  0.05643  1.12071  0.098871  0.003486 -0.000904    28.359
   0.24453  0.76308  0.06007  1.12069  0.094533  0.003494 -0.000903    27.057
   0.26151  0.74647  0.06361  1.12068  0.090214  0.003501 -0.000902    25.765
   0.27839  0.72994  0.06704  1.12066  0.085941  0.003509 -0.000902    24.492
   0.29522  0.71344  0.07036  1.12065  0.081708  0.003516 -0.000901    23.238
   0.31203  0.69694  0.07357  1.12064  0.077518  0.003523 -0.000901    22.005
   0.32881  0.68046  0.07667  1.12064  0.073379  0.003529 -0.000902    20.794
   0.34552  0.66401  0.07965  1.12065  0.069299  0.003534 -0.000902    19.608
   0.36216  0.64761  0.08250  1.12067  0.065294  0.003538 -0.000904    18.453
   0.37877  0.63123  0.08521  1.12072  0.061378  0.003541 -0.000906    17.333
   0.39539  0.61480  0.08779  1.12081  0.057535  0.003542 -0.000909    16.243
   0.41202  0.59836  0.09025  1.12093  0.053765  0.003542 -0.000913    15.181
   0.42857  0.58198  0.09257  1.12109  0.050084  0.003539 -0.000918    14.153
   0.44503  0.56566  0.09473  1.12132  0.046521  0.003533 -0.000924    13.166
   0.46148  0.54933  0.09674  1.12164  0.043081  0.003525 -0.000933    12.223
   0.47798  0.53293  0.09860  1.12207  0.039737  0.003512 -0.000944    11.313
   0.49446  0.51655  0.10033  1.12262  0.036490  0.003496 -0.000957    10.436
   0.51082  0.50026  0.10190  1.12334  0.033379  0.003476 -0.000974     9.603
   0.52710  0.48404  0.10328  1.12427  0.030432  0.003450 -0.000996     8.821
   0.54339  0.46779  0.10449  1.12548  0.027629  0.003418 -0.001024     8.083
   0.55971  0.45151  0.10554  1.12703  0.024969  0.003379 -0.001060     7.389
   0.57600  0.43525  0.10643  1.12900  0.022438  0.003333 -0.001108     6.732
   0.59218  0.41907  0.10713  1.13150  0.020095  0.003279 -0.001169     6.129
   0.60829  0.40298  0.10765  1.13466  0.017932  0.003215 -0.001234     5.577
   0.62434  0.38693  0.10796  1.13862  0.015966  0.003142 -0.001252     5.082
   0.64042  0.37085  0.10808  1.14354  0.014167  0.003058 -0.001151     4.633
   0.65651  0.35476  0.10800  1.14949  0.012556  0.002963 -0.000814     4.237
   0.67249  0.33878  0.10774  1.15635  0.011104  0.002861 -0.000133     3.881
   0.68825  0.32303  0.10727  1.16423  0.009851  0.002750  0.000893     3.582
   0.70393  0.30737  0.10654  1.17307  0.008809  0.002630  0.002157     3.349
   0.71975  0.29158  0.10557  1.18249  0.007955  0.002506  0.003528     3.174
   0.73559  0.27578  0.10439  1.19239  0.007170  0.002378  0.005223     3.015
   0.75115  0.26028  0.10302  1.20204  0.006484  0.002253  0.007157     2.878
   0.76650  0.24502  0.10139  1.21037  0.005951  0.002137  0.008921     2.785
   0.78192  0.22972  0.09944  1.21707  0.005549  0.002032  0.010317     2.731
   0.79744  0.21436  0.09725  1.22323  0.005155  0.001927  0.011952     2.675
   0.81279  0.19920  0.09484  1.22818  0.004793  0.001826  0.013705     2.624
   0.82793  0.18429  0.09217  1.23118  0.004498  0.001734  0.015166     2.594
   0.84302  0.16950  0.08922  1.23288  0.004228  0.001645  0.016588     2.571
   0.85806  0.15481  0.08599  1.23331  0.003978  0.001557  0.017935     2.555
   0.87291  0.14036  0.08253  1.23295  0.003718  0.001467  0.019628     2.534
   0.88737  0.12638  0.07886  1.23143  0.003434  0.001376  0.022128     2.496
   0.90140  0.11290  0.07496  1.22611  0.003220  0.001295  0.023741     2.486
   0.91519  0.09977  0.07076  1.21904  0.003032  0.001216  0.024857     2.494
   0.92848  0.08721  0.06643  1.21225  0.002788  0.001127  0.027477     2.473
   0.94079  0.07568  0.06209  1.20260  0.002525  0.001041  0.031649     2.425
   0.95221  0.06515  0.05767  1.18597  0.002359  0.000973  0.033419     2.424
   0.96284  0.05550  0.05322  1.16832  0.002216  0.000906  0.034272     2.446
   0.97241  0.04692  0.04898  1.15268  0.002031  0.000831  0.037012     2.443
   0.98081  0.03952  0.04501  1.13547  0.001837  0.000759  0.041223     2.421
   0.98816  0.03319  0.04127  1.11371  0.001664  0.000694  0.045733     2.397
   0.99463  0.02777  0.03774  1.08685  0.001521  0.000638  0.049591     2.382
   1.00034  0.02313  0.03441  1.05554  0.001387  0.000588  0.053991     2.359
   1.00542  0.01915  0.03125  1.01896  0.001282  0.000544  0.056559     2.356
   1.00996  0.01574  0.02825  0.97922  0.001174  0.000502  0.060282     2.339
   1.01405  0.01281  0.02541  0.93280  0.001074  0.000464  0.064263     2.314
   1.01775  0.01030  0.02269  0.87838  0.000998  0.000434  0.065921     2.302
   1.02112  0.00816  0.02007  0.81826  0.000931  0.000406  0.066332     2.293
   1.02423  0.00634  0.01756  0.75345  0.000871  0.000380  0.065246     2.294
   1.02710  0.00481  0.01513  0.68083  0.000800  0.000355  0.066470     2.256
   1.02975  0.00353  0.01281  0.59737  0.000769  0.000341  0.060764     2.254
   1.03221  0.00250  0.01057  0.51428  0.000737  0.000325  0.053913     2.268
   1.03452  0.00166  0.00842  0.42989  0.000676  0.000296  0.048580     2.280
   1.03670  0.00100  0.00634  0.32307  0.000629  0.000290  0.043462     2.166
   1.03878  0.00049  0.00433  0.22017  0.000700  0.000304  0.023413     2.307
   1.04077  0.00014  0.00237  0.12197  0.000540  0.000242  0.018081     2.230
   1.04268 -0.00001  0.00047 -0.01573  0.000540  0.000242  0.002337     2.230
   1.04452  0.00009 -0.00138 -0.17072  0.000481  0.000216  0.028513     2.225
   1.04638  0.00049 -0.00318 -0.31966  0.000524  0.000232  0.047542     2.259
   1.04830  0.00119 -0.00498 -0.46303  0.000528  0.000238  0.070760     2.219
   1.05035  0.00220 -0.00676 -0.58005  0.000613  0.000265  0.070420     2.309
   1.05254  0.00351 -0.00851 -0.68353  0.000639  0.000285  0.084498     2.243
   1.05487  0.00512 -0.01021 -0.76489  0.000741  0.000318  0.075077     2.333
   1.05738  0.00701 -0.01184 -0.82650  0.000819  0.000353  0.074212     2.320
   1.06008  0.00920 -0.01343 -0.87164  0.000941  0.000397  0.064847     2.372
   1.06301  0.01168 -0.01499 -0.90482  0.001057  0.000443  0.059116     2.386
   1.06622  0.01448 -0.01656 -0.93306  0.001168  0.000489  0.054974     2.390
   1.06978  0.01766 -0.01815 -0.95756  0.001285  0.000536  0.050791     2.399
   1.07377  0.02129 -0.01981 -0.97900  0.001408  0.000585  0.046940     2.408
   1.07825  0.02543 -0.02154 -1.00113  0.001510  0.000631  0.045434     2.394
   1.08332  0.03017 -0.02333 -1.02227  0.001630  0.000680  0.042750     2.399
   1.08907  0.03561 -0.02519 -1.04332  0.001747  0.000729  0.040833     2.396
   1.09564  0.04190 -0.02708 -1.06122  0.001906  0.000788  0.037212     2.419
   1.10320  0.04922 -0.02900 -1.07547  0.002093  0.000856  0.033471     2.444
   1.11196  0.05776 -0.03093 -1.08484  0.002330  0.000939  0.029148     2.482
   1.12207  0.06768 -0.03288 -1.09077  0.002589  0.001032  0.025621     2.509
   1.13350  0.07895 -0.03481 -1.09681  0.002812  0.001123  0.023857     2.504
   1.14613  0.09144 -0.03664 -1.10130  0.003070  0.001220  0.021653     2.516
   1.15994  0.10515 -0.03835 -1.10324  0.003370  0.001326  0.019218     2.542
   1.17469  0.11981 -0.03996 -1.10632  0.003595  0.001422  0.018337     2.528
   1.18993  0.13498 -0.04141 -1.10973  0.003811  0.001513  0.017525     2.519
   1.20552  0.15051 -0.04267 -1.11286  0.004030  0.001601  0.016650     2.517
   1.22143  0.16639 -0.04375 -1.11528  0.004259  0.001688  0.015699     2.523
   1.23764  0.18258 -0.04467 -1.11707  0.004490  0.001775  0.014800     2.530
   1.25400  0.19892 -0.04546 -1.11919  0.004684  0.001855  0.014285     2.525
   1.27036  0.21526 -0.04609 -1.12149  0.004859  0.001929  0.013894     2.519
   1.28677  0.23166 -0.04656 -1.12318  0.005057  0.002004  0.013310     2.523
   1.30335  0.24824 -0.04689 -1.12457  0.005253  0.002078  0.012767     2.527
   1.32002  0.26491 -0.04711 -1.12596  0.005433  0.002149  0.012351     2.528
   1.33663  0.28153 -0.04721 -1.12760  0.005588  0.002215  0.012091     2.523
   1.35321  0.29810 -0.04717 -1.12868  0.005769  0.002282  0.011662     2.528
   1.36986  0.31475 -0.04699 -1.12930  0.005964  0.002351  0.011180     2.537
   1.38656  0.33145 -0.04670 -1.13007  0.006132  0.002416  0.010863     2.538
   1.40323  0.34811 -0.04629 -1.13044  0.006316  0.002482  0.010471     2.545
   1.41985  0.36473 -0.04576 -1.13065  0.006497  0.002547  0.010114     2.551
   1.43647  0.38133 -0.04510 -1.13039  0.006698  0.002614  0.009682     2.563
   1.45309  0.39793 -0.04431 -1.12964  0.006919  0.002683  0.009202     2.578
   1.46972  0.41453 -0.04339 -1.12855  0.007147  0.002754  0.008729     2.596
   1.48633  0.43111 -0.04234 -1.12698  0.007398  0.002827  0.008217     2.617
   1.50291  0.44765 -0.04116 -1.12493  0.007671  0.002903  0.007676     2.643
   1.51945  0.46414 -0.03985 -1.12232  0.007981  0.002983  0.007077     2.675
   1.53596  0.48059 -0.03840 -1.11913  0.008333  0.003068  0.006431     2.716
   1.55247  0.49701 -0.03680 -1.11531  0.008744  0.003159  0.005716     2.768
   1.56903  0.51348 -0.03504 -1.11085  0.009228  0.003256  0.004939     2.835
   1.58574  0.53008 -0.03313 -1.10601  0.009772  0.003357  0.004167     2.911
   1.60264  0.54687 -0.03109 -1.10093  0.010370  0.003461  0.003434     2.996
   1.61973  0.56382 -0.02896 -1.09587  0.010988  0.003565  0.002797     3.082
   1.63695  0.58089 -0.02675 -1.09090  0.011622  0.003667  0.002247     3.169
   1.65426  0.59806 -0.02449 -1.08611  0.012256  0.003767  0.001787     3.254
   1.67164  0.61529 -0.02221 -1.08154  0.012874  0.003864  0.001418     3.332
   1.68905  0.63255 -0.01994 -1.07720  0.013463  0.003958  0.001127     3.402
   1.70644  0.64979 -0.01769 -1.07309  0.014015  0.004048  0.000903     3.462
   1.72377  0.66698 -0.01547 -1.06919  0.014532  0.004136  0.000730     3.513
   1.74101  0.68409 -0.01330 -1.06550  0.015004  0.004221  0.000602     3.554
   1.75815  0.70109 -0.01119 -1.06201  0.015423  0.004303  0.000514     3.584
   1.77520  0.71802 -0.00917 -1.05870  0.015777  0.004383  0.000466     3.600
   1.79217  0.73488 -0.00723 -1.05556  0.016063  0.004460  0.000453     3.602
   1.80907  0.75168 -0.00538 -1.05258  0.016276  0.004534  0.000472     3.589
   1.82588  0.76841 -0.00365 -1.04977  0.016421  0.004606  0.000520     3.565
   1.84259  0.78504 -0.00203 -1.04714  0.016479  0.004675  0.000605     3.525
   1.85920  0.80157 -0.00054 -1.04471  0.016455  0.004740  0.000727     3.471
   1.87568  0.81800  0.00080 -1.04254  0.016335  0.004800  0.000896     3.403
   1.89204  0.83432  0.00198 -1.04070  0.016116  0.004854  0.001120     3.320
   1.90829  0.85054  0.00299 -1.03927  0.015790  0.004898  0.001414     3.224
   1.92442  0.86665  0.00381 -1.03843  0.015357  0.004931  0.001792     3.114
   1.94041  0.88262  0.00443 -1.03834  0.014823  0.004948  0.002268     2.996
   1.95619  0.89840  0.00486 -1.03928  0.014188  0.004945  0.002864     2.869
   1.97170  0.91391  0.00506 -1.04160  0.013450  0.004915  0.003614     2.736
   1.98685  0.92905  0.00502 -1.04580  0.012608  0.004852  0.004569     2.598
   2.00150  0.94370  0.00473 -1.05251  0.011667  0.004747  0.005794     2.458
   2.01546  0.95766  0.00418 -1.06253  0.010640  0.004594  0.007382     2.316
   2.02853  0.97070  0.00337 -1.07698  0.009536  0.004385  0.009490     2.175
   2.04056  0.98268  0.00230 -1.09744  0.008370  0.004113  0.012371     2.035
   2.05143  0.99347  0.00100 -1.12674  0.007138  0.003765  0.016553     1.896
   2.05803  1.00000  0.00000 -1.12082  0.007614  0.003885  0.014724     1.960
   2.05803  1.00010 -0.00002  1.12082  0.166995  0.007270  0.000000    22.970
   2.06467  1.00659 -0.00141  1.11797  0.162626  0.007728  0.000000    21.044
   2.07243  1.01423 -0.00276  1.11479  0.160703  0.008235  0.000000    19.514
   2.08150  1.02319 -0.00417  1.11101  0.158790  0.008837  0.000000    17.969
   2.09210  1.03368 -0.00565  1.10646  0.156752  0.009559  0.000000    16.398
   2.10448  1.04597 -0.00722  1.10103  0.154432  0.010425  0.000000    14.814
   2.11896  1.06034 -0.00888  1.09452  0.151704  0.011463  0.000000    13.234
   2.13587  1.07717 -0.01064  1.08672  0.148435  0.012712  0.000000    11.677
   2.15564  1.09685 -0.01249  1.07734  0.144472  0.014218  0.000000    10.161
   2.17875  1.11988 -0.01443  1.06601  0.139637  0.016044  0.000000     8.703
   2.20575  1.14681 -0.01643  1.05223  0.133723  0.018276  0.000000     7.317
   2.23731  1.17830 -0.01848  1.03541  0.126492  0.021015  0.000000     6.019
   2.27420  1.21513 -0.02055  1.01420  0.117750  0.024500  0.000000     4.806
   2.31730  1.25819 -0.02258  0.98644  0.107413  0.029136  0.000000     3.687
   2.36768  1.30853 -0.02453  0.96125  0.095203  0.033389  0.000000     2.851
   2.42656  1.36738 -0.02632  0.94314  0.081905  0.036407  0.000000     2.250
   2.49537  1.43617 -0.02786  0.93533  0.068930  0.037650  0.000000     1.831
   2.57580  1.51659 -0.02903  0.93759  0.057772  0.037316  0.000000     1.548
   2.66978  1.61057 -0.02969  0.94627  0.049226  0.036148  0.000000     1.362
   2.77963  1.72042 -0.02966  0.95694  0.043176  0.034835  0.000000     1.239
   2.90801  1.84879 -0.02874  0.96689  0.039041  0.033701  0.000000     1.158
   3.05804  1.99881 -0.02668  0.98221  0.035372  0.032084  0.000000     1.102
