#    s        x        y     Ue/Vinf    Dstar     Theta      Cf       H
   0.00000  1.00000  0.00000  1.08044  0.124476  0.003795 -0.000257    32.799
   0.00667  0.99364  0.00201  1.08026  0.121041  0.003819 -0.000793    31.693
   0.01801  0.98283  0.00544  1.08020  0.117795  0.003830 -0.000791    30.758
   0.03089  0.97055  0.00931  1.08015  0.114269  0.003840 -0.000790    29.758
   0.04491  0.95712  0.01335  1.08011  0.110655  0.003849 -0.000789    28.752
   0.05974  0.94286  0.01740  1.08010  0.107055  0.003855 -0.000788    27.768
   0.07527  0.92786  0.02141  1.08010  0.103499  0.003860 -0.000788    26.813
   0.09142  0.91220  0.02541  1.08012  0.099936  0.003863 -0.000788    25.869
   0.10802  0.89609  0.02942  1.08015  0.096334  0.003866 -0.000788    24.918
   0.12488  0.87971  0.03341  1.08019  0.092699  0.003868 -0.000789    23.963
   0.14188  0.86318  0.03738  1.08022  0.089043  0.003871 -0.000789    23.003
   0.15896  0.84656  0.04130  1.08026  0.085372  0.003873 -0.000790    22.042
   0.17607  0.82989  0.04517  1.08031  0.081695  0.003875 -0.000791    21.080
   0.19318  0.81321  0.04899  1.08035  0.078019  0.003877 -0.000792    20.122
   0.21029  0.79652  0.05273  1.08041  0.074353  0.003879 -0.000793    19.168
   0.22743  0.77978  0.05643  1.08047  0.070687  0.003880 -0.000795    18.218
   0.24453  0.76308  0.06007  1.08054  0.067021  0.003881 -0.000797    17.269
   0.26151  0.74647  0.06361  1.08063  0.063391  0.003881 -0.000799    16.334
   0.27839  0.72994  0.06704  1.08073  0.059826  0.003880 -0.000803    15.420
   0.29522  0.71344  0.07036  1.08087  0.056319  0.003877 -0.000806    14.526
   0.31203  0.69694  0.07357  1.08106  0.052877  0.003872 -0.000811    13.655
   0.32881  0.68046  0.07667  1.08129  0.049507  0.003866 -0.000817    12.807
   0.34552  0.66401  0.07965  1.08158  0.046215  0.003856 -0.000824    11.984
   0.36216  0.64761  0.08250  1.08195  0.043022  0.003844 -0.000832    11.191
   0.37877  0.63123  0.08521  1.08243  0.039932  0.003829 -0.000843    10.430
   0.39539  0.61480  0.08779  1.08303  0.036947  0.003809 -0.000856     9.700
   0.41202  0.59836  0.09025  1.08379  0.034058  0.003785 -0.000872     8.998
   0.42857  0.58198  0.09257  1.08473  0.031280  0.003757 -0.000892     8.327
   0.44503  0.56566  0.09473  1.08590  0.028642  0.003723 -0.000918     7.694
   0.46148  0.54933  0.09674  1.08736  0.026151  0.003682 -0.000950     7.102
   0.47798  0.53293  0.09860  1.08918  0.023784  0.003635 -0.000990     6.543
   0.49446  0.51655  0.10033  1.09142  0.021540  0.003581 -0.001040     6.016
   0.51082  0.50026  0.10190  1.09417  0.019455  0.003518 -0.001088     5.529
   0.52710  0.48404  0.10328  1.09753  0.017536  0.003448 -0.001100     5.086
   0.54339  0.46779  0.10449  1.10162  0.015805  0.003368 -0.001034     4.693
   0.55971  0.45151  0.10554  1.10647  0.014215  0.003279 -0.000816     4.335
   0.57600  0.43525  0.10643  1.11201  0.012764  0.003184 -0.000381     4.009
   0.59218  0.41907  0.10713  1.11830  0.011486  0.003080  0.000284     3.729
   0.60829  0.40298  0.10765  1.12539  0.010365  0.002969  0.001164     3.492
   0.62434  0.38693  0.10796  1.13313  0.009402  0.002851  0.002202     3.298
   0.64042  0.37085  0.10808  1.14128  0.008570  0.002729  0.003370     3.140
   0.65651  0.35476  0.10800  1.14954  0.007846  0.002607  0.004642     3.009
   0.67249  0.33878  0.10774  1.15764  0.007199  0.002487  0.006061     2.895
   0.68825  0.32303  0.10727  1.16515  0.006634  0.002371  0.007566     2.798
   0.70393  0.30737  0.10654  1.17139  0.006187  0.002265  0.008890     2.732
   0.71975  0.29158  0.10557  1.17649  0.005814  0.002165  0.010062     2.686
   0.73559  0.27578  0.10439  1.18100  0.005449  0.002066  0.011422     2.637
   0.75115  0.26028  0.10302  1.18481  0.005073  0.001968  0.013175     2.578
   0.76650  0.24502  0.10139  1.18622  0.004782  0.001882  0.014576     2.541
   0.78192  0.22972  0.09944  1.18543  0.004564  0.001805  0.015471     2.529
   0.79744  0.21436  0.09725  1.18409  0.004331  0.001725  0.016609     2.510
   0.81279  0.19920  0.09484  1.18197  0.004074  0.001643  0.018227     2.479
   0.82793  0.18429  0.09217  1.17707  0.003882  0.001571  0.019220     2.470
   0.84302  0.16950  0.08922  1.17114  0.003685  0.001498  0.020356     2.460
   0.85806  0.15481  0.08599  1.16366  0.003498  0.001424  0.021400     2.456
   0.87291  0.14036  0.08253  1.15513  0.003301  0.001348  0.022680     2.449
   0.88737  0.12638  0.07886  1.14538  0.003060  0.001267  0.025095     2.416
   0.90140  0.11290  0.07496  1.13080  0.002884  0.001197  0.026442     2.410
   0.91519  0.09977  0.07076  1.11396  0.002732  0.001127  0.027120     2.424
   0.92848  0.08721  0.06643  1.09716  0.002528  0.001047  0.029151     2.414
   0.94079  0.07568  0.06209  1.07707  0.002290  0.000967  0.033053     2.368
   0.95221  0.06515  0.05767  1.04842  0.002130  0.000905  0.035078     2.354
   0.96284  0.05550  0.05322  1.01661  0.002021  0.000848  0.034885     2.382
   0.97241  0.04692  0.04898  0.98808  0.001865  0.000780  0.036433     2.390
   0.98081  0.03952  0.04501  0.95809  0.001673  0.000710  0.040659     2.358
   0.98816  0.03319  0.04127  0.92092  0.001532  0.000652  0.043095     2.348
   0.99463  0.02777  0.03774  0.87947  0.001397  0.000600  0.045977     2.329
   1.00034  0.02313  0.03441  0.83226  0.001286  0.000555  0.047737     2.318
   1.00542  0.01915  0.03125  0.78013  0.001182  0.000513  0.049391     2.302
   1.00996  0.01574  0.02825  0.72257  0.001097  0.000478  0.049546     2.297
   1.01405  0.01281  0.02541  0.66097  0.001015  0.000443  0.049230     2.292
   1.01775  0.01030  0.02269  0.59304  0.000933  0.000410  0.048789     2.275
   1.02112  0.00816  0.02007  0.51484  0.000867  0.000386  0.046737     2.248
   1.02423  0.00634  0.01756  0.43215  0.000831  0.000365  0.039895     2.276
   1.02710  0.00481  0.01513  0.34459  0.000756  0.000339  0.036319     2.234
   1.02975  0.00353  0.01281  0.24715  0.000737  0.000328  0.026483     2.244
   1.03221  0.00250  0.01057  0.14900  0.000691  0.000309  0.017136     2.237
   1.03452  0.00166  0.00842  0.04358  0.000657  0.000295  0.005309     2.230
   1.03670  0.00100  0.00634 -0.06304  0.000657  0.000295  0.007681     2.230
   1.03878  0.00049  0.00433 -0.19520  0.000540  0.000245  0.029598     2.203
   1.04077  0.00014  0.00237 -0.33052  0.000567  0.000250  0.045229     2.264
   1.04268 -0.00001  0.00047 -0.48142  0.000501  0.000230  0.080812     2.174
   1.04452  0.00009 -0.00138 -0.65493  0.000481  0.000216  0.108992     2.229
   1.04638  0.00049 -0.00318 -0.81217  0.000498  0.000222  0.128083     2.249
   1.04830  0.00119 -0.00498 -0.93435  0.000560  0.000243  0.124668     2.305
   1.05035  0.00220 -0.00676 -1.03040  0.000618  0.000268  0.124488     2.306
   1.05254  0.00351 -0.00851 -1.10716  0.000691  0.000296  0.116464     2.334
   1.05487  0.00512 -0.01021 -1.16094  0.000786  0.000331  0.103159     2.375
   1.05738  0.00701 -0.01184 -1.19508  0.000902  0.000373  0.088534     2.420
   1.06008  0.00920 -0.01343 -1.21123  0.001053  0.000423  0.071668     2.487
   1.06301  0.01168 -0.01499 -1.22122  0.001184  0.000474  0.063445     2.499
   1.06622  0.01448 -0.01656 -1.22881  0.001314  0.000524  0.056981     2.508
   1.06978  0.01766 -0.01815 -1.23205  0.001473  0.000580  0.049201     2.540
   1.07377  0.02129 -0.01981 -1.23548  0.001607  0.000634  0.045491     2.535
   1.07825  0.02543 -0.02154 -1.23967  0.001739  0.000689  0.042622     2.525
   1.08332  0.03017 -0.02333 -1.24403  0.001878  0.000745  0.039752     2.522
   1.08907  0.03561 -0.02519 -1.24944  0.002012  0.000801  0.037748     2.510
   1.09564  0.04190 -0.02708 -1.25248  0.002196  0.000867  0.033857     2.532
   1.10320  0.04922 -0.02900 -1.25312  0.002410  0.000942  0.029973     2.559
   1.11196  0.05776 -0.03093 -1.24900  0.002704  0.001033  0.024946     2.616
   1.12207  0.06768 -0.03288 -1.24359  0.002988  0.001131  0.021815     2.642
   1.13350  0.07895 -0.03481 -1.23756  0.003280  0.001234  0.019413     2.657
   1.14613  0.09144 -0.03664 -1.23139  0.003576  0.001341  0.017501     2.668
   1.15994  0.10515 -0.03835 -1.22393  0.003925  0.001455  0.015299     2.697
   1.17469  0.11981 -0.03996 -1.21796  0.004203  0.001563  0.014366     2.688
   1.18993  0.13498 -0.04141 -1.21338  0.004448  0.001664  0.013782     2.672
   1.20552  0.15051 -0.04267 -1.20911  0.004710  0.001764  0.013004     2.670
   1.22143  0.16639 -0.04375 -1.20506  0.004973  0.001861  0.012248     2.672
   1.23764  0.18258 -0.04467 -1.20122  0.005233  0.001956  0.011560     2.675
   1.25400  0.19892 -0.04546 -1.19828  0.005447  0.002044  0.011210     2.665
   1.27036  0.21526 -0.04609 -1.19575  0.005654  0.002127  0.010874     2.658
   1.28677  0.23166 -0.04656 -1.19300  0.005888  0.002212  0.010362     2.662
   1.30335  0.24824 -0.04689 -1.19021  0.006125  0.002295  0.009862     2.669
   1.32002  0.26491 -0.04711 -1.18784  0.006332  0.002374  0.009539     2.667
   1.33663  0.28153 -0.04721 -1.18570  0.006529  0.002450  0.009261     2.665
   1.35321  0.29810 -0.04717 -1.18330  0.006751  0.002527  0.008863     2.672
   1.36986  0.31475 -0.04699 -1.18080  0.006980  0.002604  0.008465     2.680
   1.38656  0.33145 -0.04670 -1.17825  0.007211  0.002680  0.008081     2.690
   1.40323  0.34811 -0.04629 -1.17555  0.007451  0.002757  0.007684     2.702
   1.41985  0.36473 -0.04576 -1.17277  0.007695  0.002833  0.007301     2.716
   1.43647  0.38133 -0.04510 -1.16960  0.007976  0.002913  0.006830     2.738
   1.45309  0.39793 -0.04431 -1.16613  0.008283  0.002995  0.006329     2.766
   1.46972  0.41453 -0.04339 -1.16233  0.008623  0.003079  0.005792     2.800
   1.48633  0.43111 -0.04234 -1.15829  0.008989  0.003166  0.005253     2.839
   1.50291  0.44765 -0.04116 -1.15391  0.009404  0.003256  0.004670     2.888
   1.51945  0.46414 -0.03985 -1.14918  0.009883  0.003349  0.004037     2.951
   1.53596  0.48059 -0.03840 -1.14427  0.010416  0.003445  0.003403     3.023
   1.55247  0.49701 -0.03680 -1.13909  0.011051  0.003545  0.002718     3.117
   1.56903  0.51348 -0.03504 -1.13386  0.011775  0.003646  0.002044     3.230
   1.58574  0.53008 -0.03313 -1.12870  0.012601  0.003746  0.001397     3.364
   1.60264  0.54687 -0.03109 -1.12379  0.013492  0.003844  0.000836     3.510
   1.61973  0.56382 -0.02896 -1.11919  0.014433  0.003937  0.000373     3.666
   1.63695  0.58089 -0.02675 -1.11493  0.015400  0.004025  0.000012     3.826
   1.65426  0.59806 -0.02449 -1.11099  0.016384  0.004109 -0.000262     3.987
   1.67164  0.61529 -0.02221 -1.10732  0.017350  0.004190 -0.000455     4.141
   1.68905  0.63255 -0.01994 -1.10389  0.018290  0.004268 -0.000586     4.285
   1.70644  0.64979 -0.01769 -1.10065  0.019185  0.004344 -0.000670     4.417
   1.72377  0.66698 -0.01547 -1.09763  0.020036  0.004417 -0.000723     4.537
   1.74101  0.68409 -0.01330 -1.09479  0.020828  0.004487 -0.000754     4.642
   1.75815  0.70109 -0.01119 -1.09212  0.021549  0.004555 -0.000769     4.730
   1.77520  0.71802 -0.00917 -1.08959  0.022182  0.004622 -0.000774     4.799
   1.79217  0.73488 -0.00723 -1.08717  0.022726  0.004687 -0.000772     4.849
   1.80907  0.75168 -0.00538 -1.08483  0.023171  0.004751 -0.000765     4.877
   1.82588  0.76841 -0.00365 -1.08257  0.023516  0.004815 -0.000754     4.884
   1.84259  0.78504 -0.00203 -1.08036  0.023743  0.004877 -0.000740     4.868
   1.85920  0.80157 -0.00054 -1.07820  0.023849  0.004939 -0.000723     4.829
   1.87568  0.81800  0.00080 -1.07607  0.023820  0.005001 -0.000698     4.763
   1.89204  0.83432  0.00198 -1.07396  0.023648  0.005063 -0.000665     4.671
   1.90829  0.85054  0.00299 -1.07187  0.023320  0.005124 -0.000615     4.552
   1.92442  0.86665  0.00381 -1.06980  0.022831  0.005184 -0.000539     4.404
   1.94041  0.88262  0.00443 -1.06775  0.022186  0.005244 -0.000422     4.231
   1.95619  0.89840  0.00486 -1.06574  0.021379  0.005302 -0.000243     4.032
   1.97170  0.91391  0.00506 -1.06392  0.020410  0.005356  0.000030     3.811
   1.98685  0.92905  0.00502 -1.06255  0.019278  0.005396  0.000435     3.572
   2.00150  0.94370  0.00473 -1.06209  0.017996  0.005414  0.001016     3.324
   2.01546  0.95766  0.00418 -1.06318  0.016589  0.005394  0.001820     3.076
   2.02853  0.97070  0.00337 -1.06659  0.015088  0.005322  0.002900     2.835
   2.04056  0.98268  0.00230 -1.07313  0.013540  0.005189  0.004313     2.609
   2.05143  0.99347  0.00100 -1.08348  0.012007  0.004993  0.006119     2.405
   2.05803  1.00000  0.00000 -1.08044  0.012499  0.005073  0.005516     2.464
   2.05803  1.00010 -0.00002  1.08044  0.136975  0.008868  0.000000    15.446
   2.06467  1.00659 -0.00142  1.07762  0.131881  0.009266  0.000000    14.233
   2.07243  1.01422 -0.00280  1.07449  0.129462  0.009702  0.000000    13.344
   2.08150  1.02317 -0.00425  1.07075  0.127041  0.010219  0.000000    12.432
   2.09210  1.03366 -0.00581  1.06627  0.124467  0.010835  0.000000    11.488
   2.10448  1.04593 -0.00748  1.06087  0.121583  0.011574  0.000000    10.505
   2.11896  1.06029 -0.00929  1.05433  0.118263  0.012465  0.000000     9.487
   2.13587  1.07709 -0.01123  1.04637  0.114378  0.013545  0.000000     8.444
   2.15564  1.09675 -0.01333  1.03662  0.109786  0.014862  0.000000     7.387
   2.17875  1.11975 -0.01558  1.02454  0.104336  0.016488  0.000000     6.328
   2.20575  1.14664 -0.01800  1.00926  0.097876  0.018539  0.000000     5.280
   2.23731  1.17810 -0.02058  0.98920  0.090309  0.021235  0.000000     4.253
   2.27420  1.21488 -0.02333  0.96762  0.081437  0.024139  0.000000     3.374
   2.31730  1.25789 -0.02622  0.94911  0.071429  0.026602  0.000000     2.685
   2.36768  1.30818 -0.02926  0.93683  0.060980  0.028180  0.000000     2.164
   2.42656  1.36697 -0.03243  0.93333  0.051140  0.028602  0.000000     1.788
   2.49537  1.43570 -0.03569  0.93808  0.042909  0.028075  0.000000     1.528
   2.57580  1.51606 -0.03900  0.94765  0.036713  0.027112  0.000000     1.354
   2.66978  1.60999 -0.04233  0.95825  0.032353  0.026137  0.000000     1.238
   2.77963  1.71978 -0.04562  0.96771  0.029374  0.025328  0.000000     1.160
   2.90801  1.84812 -0.04878  0.97542  0.027353  0.024706  0.000000     1.107
   3.05804  1.99813 -0.05174  0.98502  0.025677  0.023970  0.000000     1.071
