#    s        x        y     Ue/Vinf    Dstar     Theta      Cf       H
   0.00000  1.00000  0.00000  1.08860  0.131093  0.003710 -0.000261    35.331
   0.00667  0.99364  0.00201  1.08843  0.127678  0.003734 -0.000816    34.196
   0.01801  0.98283  0.00544  1.08838  0.124394  0.003744 -0.000814    33.225
   0.03089  0.97055  0.00931  1.08833  0.120811  0.003754 -0.000813    32.181
   0.04491  0.95712  0.01335  1.08830  0.117129  0.003763 -0.000811    31.128
   0.05974  0.94286  0.01740  1.08828  0.113450  0.003770 -0.000810    30.096
   0.07527  0.92786  0.02141  1.08828  0.109806  0.003775 -0.000810    29.091
   0.09142  0.91220  0.02541  1.08830  0.106149  0.003778 -0.000810    28.095
   0.10802  0.89609  0.02942  1.08833  0.102444  0.003781 -0.000810    27.091
   0.12488  0.87971  0.03341  1.08835  0.098703  0.003785 -0.000810    26.080
   0.14188  0.86318  0.03738  1.08838  0.094934  0.003788 -0.000811    25.063
   0.15896  0.84656  0.04130  1.08841  0.091146  0.003791 -0.000811    24.042
   0.17607  0.82989  0.04517  1.08844  0.087348  0.003794 -0.000811    23.020
   0.19318  0.81321  0.04899  1.08847  0.083547  0.003798 -0.000812    21.999
   0.21029  0.79652  0.05273  1.08850  0.079750  0.003801 -0.000813    20.983
   0.22743  0.77978  0.05643  1.08854  0.075951  0.003804 -0.000814    19.968
   0.24453  0.76308  0.06007  1.08858  0.072146  0.003806 -0.000815    18.954
   0.26151  0.74647  0.06361  1.08863  0.068374  0.003809 -0.000817    17.952
   0.27839  0.72994  0.06704  1.08870  0.064663  0.003810 -0.000819    16.972
   0.29522  0.71344  0.07036  1.08879  0.061006  0.003810 -0.000821    16.012
   0.31203  0.69694  0.07357  1.08891  0.057409  0.003809 -0.000825    15.074
   0.32881  0.68046  0.07667  1.08906  0.053880  0.003805 -0.000829    14.159
   0.34552  0.66401  0.07965  1.08926  0.050424  0.003800 -0.000834    13.269
   0.36216  0.64761  0.08250  1.08953  0.047062  0.003792 -0.000841    12.410
   0.37877  0.63123  0.08521  1.08987  0.043802  0.003782 -0.000849    11.583
   0.39539  0.61480  0.08779  1.09031  0.040640  0.003767 -0.000859    10.787
   0.41202  0.59836  0.09025  1.09087  0.037565  0.003750 -0.000872    10.019
   0.42857  0.58198  0.09257  1.09158  0.034601  0.003728 -0.000888     9.283
   0.44503  0.56566  0.09473  1.09246  0.031771  0.003701 -0.000907     8.585
   0.46148  0.54933  0.09674  1.09358  0.029080  0.003668 -0.000931     7.927
   0.47798  0.53293  0.09860  1.09499  0.026514  0.003630 -0.000962     7.305
   0.49446  0.51655  0.10033  1.09674  0.024062  0.003585 -0.001002     6.713
   0.51082  0.50026  0.10190  1.09890  0.021766  0.003532 -0.001052     6.162
   0.52710  0.48404  0.10328  1.10159  0.019641  0.003472 -0.001106     5.657
   0.54339  0.46779  0.10449  1.10491  0.017690  0.003403 -0.001131     5.199
   0.55971  0.45151  0.10554  1.10896  0.015889  0.003324 -0.001089     4.780
   0.57600  0.43525  0.10643  1.11382  0.014236  0.003236 -0.000894     4.399
   0.59218  0.41907  0.10713  1.11941  0.012760  0.003141 -0.000484     4.062
   0.60829  0.40298  0.10765  1.12577  0.011446  0.003039  0.000179     3.766
   0.62434  0.38693  0.10796  1.13298  0.010308  0.002928  0.001063     3.521
   0.64042  0.37085  0.10808  1.14093  0.009328  0.002809  0.002124     3.320
   0.65651  0.35476  0.10800  1.14942  0.008462  0.002686  0.003372     3.150
   0.67249  0.33878  0.10774  1.15807  0.007700  0.002562  0.004793     3.006
   0.68825  0.32303  0.10727  1.16635  0.007052  0.002442  0.006293     2.888
   0.70393  0.30737  0.10654  1.17378  0.006522  0.002328  0.007726     2.801
   0.71975  0.29158  0.10557  1.18002  0.006103  0.002223  0.008925     2.745
   0.73559  0.27578  0.10439  1.18601  0.005672  0.002117  0.010471     2.680
   0.75115  0.26028  0.10302  1.19096  0.005266  0.002014  0.012236     2.614
   0.76650  0.24502  0.10139  1.19369  0.004948  0.001924  0.013696     2.572
   0.78192  0.22972  0.09944  1.19430  0.004708  0.001842  0.014675     2.555
   0.79744  0.21436  0.09725  1.19428  0.004460  0.001760  0.015850     2.535
   0.81279  0.19920  0.09484  1.19358  0.004186  0.001674  0.017513     2.500
   0.82793  0.18429  0.09217  1.19020  0.003980  0.001599  0.018597     2.489
   0.84302  0.16950  0.08922  1.18579  0.003765  0.001522  0.019907     2.473
   0.85806  0.15481  0.08599  1.17940  0.003585  0.001449  0.020759     2.475
   0.87291  0.14036  0.08253  1.17276  0.003369  0.001369  0.022268     2.462
   0.88737  0.12638  0.07886  1.16451  0.003125  0.001286  0.024643     2.429
   0.90140  0.11290  0.07496  1.15182  0.002942  0.001214  0.026068     2.423
   0.91519  0.09977  0.07076  1.13691  0.002784  0.001143  0.026840     2.435
   0.92848  0.08721  0.06643  1.12210  0.002579  0.001062  0.028798     2.428
   0.94079  0.07568  0.06209  1.10458  0.002323  0.000979  0.033277     2.373
   0.95221  0.06515  0.05767  1.07771  0.002177  0.000918  0.034668     2.372
   0.96284  0.05550  0.05322  1.04943  0.002047  0.000857  0.035303     2.389
   0.97241  0.04692  0.04898  1.02277  0.001894  0.000789  0.036816     2.399
   0.98081  0.03952  0.04501  0.99507  0.001698  0.000719  0.041441     2.362
   0.98816  0.03319  0.04127  0.96045  0.001567  0.000663  0.043187     2.365
   0.99463  0.02777  0.03774  0.92347  0.001418  0.000606  0.047168     2.337
   1.00034  0.02313  0.03441  0.87947  0.001305  0.000560  0.049219     2.329
   1.00542  0.01915  0.03125  0.83009  0.001192  0.000518  0.052252     2.300
   1.00996  0.01574  0.02825  0.77458  0.001121  0.000485  0.051329     2.311
   1.01405  0.01281  0.02541  0.71846  0.001031  0.000447  0.051918     2.308
   1.01775  0.01030  0.02269  0.65325  0.000933  0.000413  0.054366     2.262
   1.02112  0.00816  0.02007  0.57791  0.000891  0.000391  0.049565     2.280
   1.02423  0.00634  0.01756  0.49803  0.000821  0.000367  0.048223     2.236
   1.02710  0.00481  0.01513  0.41503  0.000792  0.000344  0.039074     2.306
   1.02975  0.00353  0.01281  0.32064  0.000699  0.000322  0.038490     2.175
   1.03221  0.00250  0.01057  0.22031  0.000785  0.000345  0.021585     2.272
   1.03452  0.00166  0.00842  0.13562  0.000663  0.000296  0.016174     2.242
   1.03670  0.00100  0.00634  0.01875  0.000566  0.000254  0.002648     2.230
   1.03878  0.00049  0.00433 -0.11816  0.000566  0.000254  0.016696     2.230
   1.04077  0.00014  0.00237 -0.24509  0.000578  0.000259  0.033749     2.234
   1.04268 -0.00001  0.00047 -0.38341  0.000529  0.000240  0.059647     2.199
   1.04452  0.00009 -0.00138 -0.55319  0.000476  0.000217  0.095312     2.201
   1.04638  0.00049 -0.00318 -0.70881  0.000508  0.000224  0.107463     2.271
   1.04830  0.00119 -0.00498 -0.83779  0.000546  0.000241  0.118723     2.267
   1.05035  0.00220 -0.00676 -0.93827  0.000620  0.000267  0.111454     2.319
   1.05254  0.00351 -0.00851 -1.02049  0.000678  0.000294  0.112156     2.308
   1.05487  0.00512 -0.01021 -1.08076  0.000774  0.000328  0.098571     2.363
   1.05738  0.00701 -0.01184 -1.11988  0.000886  0.000369  0.085942     2.402
   1.06008  0.00920 -0.01343 -1.14180  0.001028  0.000418  0.071377     2.458
   1.06301  0.01168 -0.01499 -1.15576  0.001160  0.000468  0.062751     2.477
   1.06622  0.01448 -0.01656 -1.16728  0.001284  0.000518  0.057093     2.480
   1.06978  0.01766 -0.01815 -1.17555  0.001425  0.000570  0.050771     2.498
   1.07377  0.02129 -0.01981 -1.18215  0.001566  0.000625  0.046043     2.507
   1.07825  0.02543 -0.02154 -1.19054  0.001681  0.000676  0.044135     2.487
   1.08332  0.03017 -0.02333 -1.19944  0.001807  0.000729  0.041670     2.480
   1.08907  0.03561 -0.02519 -1.20694  0.001959  0.000787  0.038233     2.491
   1.09564  0.04190 -0.02708 -1.21393  0.002115  0.000848  0.035471     2.494
   1.10320  0.04922 -0.02900 -1.21648  0.002345  0.000924  0.030622     2.537
   1.11196  0.05776 -0.03093 -1.21606  0.002598  0.001010  0.026602     2.571
   1.12207  0.06768 -0.03288 -1.21264  0.002893  0.001108  0.022798     2.610
   1.13350  0.07895 -0.03481 -1.20910  0.003163  0.001209  0.020617     2.617
   1.14613  0.09144 -0.03664 -1.20508  0.003450  0.001313  0.018611     2.628
   1.15994  0.10515 -0.03835 -1.19934  0.003792  0.001426  0.016251     2.658
   1.17469  0.11981 -0.03996 -1.19533  0.004049  0.001531  0.015418     2.645
   1.18993  0.13498 -0.04141 -1.19234  0.004289  0.001630  0.014734     2.632
   1.20552  0.15051 -0.04267 -1.18977  0.004532  0.001725  0.014000     2.627
   1.22143  0.16639 -0.04375 -1.18707  0.004789  0.001820  0.013159     2.631
   1.23764  0.18258 -0.04467 -1.18443  0.005042  0.001913  0.012410     2.635
   1.25400  0.19892 -0.04546 -1.18247  0.005256  0.002000  0.011979     2.628
   1.27036  0.21526 -0.04609 -1.18109  0.005446  0.002080  0.011677     2.619
   1.28677  0.23166 -0.04656 -1.17930  0.005671  0.002162  0.011137     2.623
   1.30335  0.24824 -0.04689 -1.17736  0.005901  0.002244  0.010600     2.630
   1.32002  0.26491 -0.04711 -1.17586  0.006096  0.002320  0.010277     2.628
   1.33663  0.28153 -0.04721 -1.17443  0.006289  0.002394  0.009957     2.627
   1.35321  0.29810 -0.04717 -1.17292  0.006489  0.002467  0.009607     2.630
   1.36986  0.31475 -0.04699 -1.17106  0.006712  0.002543  0.009165     2.640
   1.38656  0.33145 -0.04670 -1.16923  0.006925  0.002616  0.008792     2.647
   1.40323  0.34811 -0.04629 -1.16729  0.007142  0.002689  0.008422     2.656
   1.41985  0.36473 -0.04576 -1.16512  0.007373  0.002763  0.008023     2.668
   1.43647  0.38133 -0.04510 -1.16257  0.007631  0.002840  0.007557     2.687
   1.45309  0.39793 -0.04431 -1.15970  0.007911  0.002918  0.007063     2.711
   1.46972  0.41453 -0.04339 -1.15654  0.008211  0.002998  0.006560     2.738
   1.48633  0.43111 -0.04234 -1.15294  0.008551  0.003083  0.005998     2.774
   1.50291  0.44765 -0.04116 -1.14907  0.008917  0.003169  0.005436     2.814
   1.51945  0.46414 -0.03985 -1.14476  0.009341  0.003259  0.004815     2.866
   1.53596  0.48059 -0.03840 -1.14013  0.009820  0.003353  0.004167     2.929
   1.55247  0.49701 -0.03680 -1.13512  0.010389  0.003452  0.003460     3.010
   1.56903  0.51348 -0.03504 -1.12994  0.011036  0.003553  0.002755     3.106
   1.58574  0.53008 -0.03313 -1.12465  0.011782  0.003656  0.002056     3.223
   1.60264  0.54687 -0.03109 -1.11952  0.012589  0.003757  0.001434     3.350
   1.61973  0.56382 -0.02896 -1.11463  0.013439  0.003855  0.000905     3.486
   1.63695  0.58089 -0.02675 -1.11006  0.014311  0.003949  0.000478     3.624
   1.65426  0.59806 -0.02449 -1.10579  0.015195  0.004039  0.000140     3.762
   1.67164  0.61529 -0.02221 -1.10182  0.016065  0.004125 -0.000113     3.895
   1.68905  0.63255 -0.01994 -1.09811  0.016908  0.004207 -0.000298     4.019
   1.70644  0.64979 -0.01769 -1.09462  0.017707  0.004286 -0.000429     4.131
   1.72377  0.66698 -0.01547 -1.09132  0.018466  0.004363 -0.000520     4.232
   1.74101  0.68409 -0.01330 -1.08821  0.019167  0.004438 -0.000581     4.319
   1.75815  0.70109 -0.01119 -1.08526  0.019804  0.004511 -0.000619     4.390
   1.77520  0.71802 -0.00917 -1.08245  0.020355  0.004582 -0.000639     4.442
   1.79217  0.73488 -0.00723 -1.07976  0.020825  0.004652 -0.000647     4.477
   1.80907  0.75168 -0.00538 -1.07717  0.021200  0.004720 -0.000643     4.492
   1.82588  0.76841 -0.00365 -1.07467  0.021481  0.004787 -0.000631     4.487
   1.84259  0.78504 -0.00203 -1.07223  0.021652  0.004853 -0.000608     4.461
   1.85920  0.80157 -0.00054 -1.06986  0.021710  0.004919 -0.000574     4.414
   1.87568  0.81800  0.00080 -1.06755  0.021642  0.004983 -0.000523     4.343
   1.89204  0.83432  0.00198 -1.06528  0.021439  0.005047 -0.000451     4.248
   1.90829  0.85054  0.00299 -1.06305  0.021092  0.005110 -0.000346     4.128
   1.92442  0.86665  0.00381 -1.06088  0.020597  0.005171 -0.000194     3.983
   1.94041  0.88262  0.00443 -1.05886  0.019959  0.005229  0.000022     3.817
   1.95619  0.89840  0.00486 -1.05714  0.019175  0.005279  0.000325     3.632
   1.97170  0.91391  0.00506 -1.05596  0.018244  0.005316  0.000748     3.432
   1.98685  0.92905  0.00502 -1.05572  0.017168  0.005329  0.001328     3.222
   2.00150  0.94370  0.00473 -1.05696  0.015958  0.005308  0.002109     3.006
   2.01546  0.95766  0.00418 -1.06037  0.014636  0.005241  0.003145     2.793
   2.02853  0.97070  0.00337 -1.06681  0.013228  0.005116  0.004509     2.585
   2.04056  0.98268  0.00230 -1.07717  0.011774  0.004927  0.006296     2.390
   2.05143  0.99347  0.00100 -1.09250  0.010312  0.004670  0.008645     2.208
   2.05803  1.00000  0.00000 -1.08860  0.010803  0.004764  0.007795     2.267
   2.05803  1.00010 -0.00002  1.08860  0.141896  0.008475  0.000000    16.744
   2.06467  1.00659 -0.00142  1.08581  0.136983  0.008877  0.000000    15.431
   2.07243  1.01422 -0.00279  1.08272  0.134679  0.009316  0.000000    14.456
   2.08150  1.02318 -0.00424  1.07900  0.132375  0.009842  0.000000    13.451
   2.09210  1.03366 -0.00578  1.07455  0.129924  0.010468  0.000000    12.411
   2.10448  1.04593 -0.00743  1.06919  0.127167  0.011220  0.000000    11.334
   2.11896  1.06030 -0.00920  1.06271  0.123978  0.012126  0.000000    10.224
   2.13587  1.07711 -0.01111  1.05485  0.120227  0.013222  0.000000     9.093
   2.15564  1.09677 -0.01316  1.04526  0.115771  0.014556  0.000000     7.953
   2.17875  1.11977 -0.01535  1.03344  0.110446  0.016195  0.000000     6.820
   2.20575  1.14668 -0.01768  1.01866  0.104086  0.018243  0.000000     5.706
   2.23731  1.17814 -0.02016  0.99961  0.096549  0.020884  0.000000     4.623
   2.27420  1.21493 -0.02276  0.97625  0.087707  0.024139  0.000000     3.633
   2.31730  1.25795 -0.02549  0.95543  0.077488  0.027032  0.000000     2.867
   2.36768  1.30825 -0.02831  0.94019  0.066528  0.029095  0.000000     2.287
   2.42656  1.36706 -0.03119  0.93379  0.055890  0.029916  0.000000     1.868
   2.49537  1.43581 -0.03410  0.93653  0.046735  0.029592  0.000000     1.579
   2.57580  1.51618 -0.03698  0.94529  0.039705  0.028648  0.000000     1.386
   2.66978  1.61013 -0.03977  0.95596  0.034718  0.027600  0.000000     1.258
   2.77963  1.71994 -0.04238  0.96584  0.031310  0.026703  0.000000     1.173
   2.90801  1.84830 -0.04472  0.97399  0.029006  0.026007  0.000000     1.115
   3.05804  1.99832 -0.04666  0.98444  0.027079  0.025162  0.000000     1.076
