#    s        x        y     Ue/Vinf    Dstar     Theta      Cf       H
   0.00000  1.00000  0.00000  1.08174  0.125579  0.003781 -0.000257    33.214
   0.00667  0.99364  0.00201  1.08156  0.122148  0.003805 -0.000797    32.103
   0.01801  0.98283  0.00544  1.08151  0.118895  0.003815 -0.000795    31.163
   0.03089  0.97055  0.00931  1.08145  0.115359  0.003826 -0.000794    30.155
   0.04491  0.95712  0.01335  1.08142  0.111733  0.003834 -0.000792    29.141
   0.05974  0.94286  0.01740  1.08140  0.108119  0.003841 -0.000792    28.149
   0.07527  0.92786  0.02141  1.08141  0.104547  0.003846 -0.000791    27.186
   0.09142  0.91220  0.02541  1.08143  0.100969  0.003849 -0.000792    26.232
   0.10802  0.89609  0.02942  1.08146  0.097348  0.003852 -0.000792    25.273
   0.12488  0.87971  0.03341  1.08149  0.093695  0.003855 -0.000792    24.308
   0.14188  0.86318  0.03738  1.08152  0.090019  0.003857 -0.000793    23.339
   0.15896  0.84656  0.04130  1.08156  0.086327  0.003860 -0.000793    22.367
   0.17607  0.82989  0.04517  1.08160  0.082630  0.003862 -0.000794    21.396
   0.19318  0.81321  0.04899  1.08165  0.078933  0.003864 -0.000795    20.427
   0.21029  0.79652  0.05273  1.08170  0.075243  0.003866 -0.000797    19.462
   0.22743  0.77978  0.05643  1.08175  0.071556  0.003868 -0.000798    18.501
   0.24453  0.76308  0.06007  1.08182  0.067865  0.003869 -0.000800    17.542
   0.26151  0.74647  0.06361  1.08190  0.064213  0.003869 -0.000802    16.596
   0.27839  0.72994  0.06704  1.08200  0.060621  0.003868 -0.000805    15.671
   0.29522  0.71344  0.07036  1.08213  0.057089  0.003866 -0.000809    14.766
   0.31203  0.69694  0.07357  1.08230  0.053621  0.003862 -0.000813    13.884
   0.32881  0.68046  0.07667  1.08252  0.050224  0.003856 -0.000818    13.025
   0.34552  0.66401  0.07965  1.08279  0.046903  0.003848 -0.000825    12.190
   0.36216  0.64761  0.08250  1.08314  0.043681  0.003836 -0.000833    11.386
   0.37877  0.63123  0.08521  1.08360  0.040563  0.003821 -0.000844    10.615
   0.39539  0.61480  0.08779  1.08417  0.037550  0.003803 -0.000856     9.874
   0.41202  0.59836  0.09025  1.08489  0.034626  0.003780 -0.000872     9.161
   0.42857  0.58198  0.09257  1.08579  0.031819  0.003752 -0.000891     8.480
   0.44503  0.56566  0.09473  1.08690  0.029148  0.003720 -0.000915     7.836
   0.46148  0.54933  0.09674  1.08830  0.026620  0.003681 -0.000946     7.232
   0.47798  0.53293  0.09860  1.09005  0.024223  0.003635 -0.000985     6.664
   0.49446  0.51655  0.10033  1.09220  0.021946  0.003582 -0.001033     6.126
   0.51082  0.50026  0.10190  1.09485  0.019819  0.003522 -0.001085     5.627
   0.52710  0.48404  0.10328  1.09809  0.017873  0.003453 -0.001107     5.176
   0.54339  0.46779  0.10449  1.10204  0.016099  0.003375 -0.001063     4.770
   0.55971  0.45151  0.10554  1.10677  0.014477  0.003287 -0.000879     4.404
   0.57600  0.43525  0.10643  1.11221  0.012994  0.003193 -0.000486     4.070
   0.59218  0.41907  0.10713  1.11838  0.011684  0.003091  0.000138     3.779
   0.60829  0.40298  0.10765  1.12536  0.010528  0.002981  0.000992     3.532
   0.62434  0.38693  0.10796  1.13303  0.009544  0.002864  0.002002     3.332
   0.64042  0.37085  0.10808  1.14119  0.008683  0.002742  0.003167     3.166
   0.65651  0.35476  0.10800  1.14949  0.007943  0.002620  0.004424     3.031
   0.67249  0.33878  0.10774  1.15774  0.007272  0.002499  0.005867     2.911
   0.68825  0.32303  0.10727  1.16532  0.006705  0.002383  0.007336     2.814
   0.70393  0.30737  0.10654  1.17186  0.006235  0.002274  0.008723     2.741
   0.71975  0.29158  0.10557  1.17702  0.005868  0.002175  0.009827     2.698
   0.73559  0.27578  0.10439  1.18196  0.005479  0.002074  0.011295     2.642
   0.75115  0.26028  0.10302  1.18593  0.005100  0.001975  0.013051     2.582
   0.76650  0.24502  0.10139  1.18747  0.004809  0.001889  0.014427     2.546
   0.78192  0.22972  0.09944  1.18692  0.004588  0.001811  0.015331     2.533
   0.79744  0.21436  0.09725  1.18593  0.004344  0.001730  0.016579     2.511
   0.81279  0.19920  0.09484  1.18371  0.004099  0.001650  0.018025     2.485
   0.82793  0.18429  0.09217  1.17933  0.003896  0.001576  0.019149     2.473
   0.84302  0.16950  0.08922  1.17356  0.003698  0.001502  0.020279     2.463
   0.85806  0.15481  0.08599  1.16629  0.003511  0.001428  0.021315     2.459
   0.87291  0.14036  0.08253  1.15801  0.003313  0.001351  0.022595     2.452
   0.88737  0.12638  0.07886  1.14857  0.003070  0.001270  0.025029     2.418
   0.90140  0.11290  0.07496  1.13429  0.002894  0.001200  0.026370     2.412
   0.91519  0.09977  0.07076  1.11781  0.002740  0.001130  0.027068     2.426
   0.92848  0.08721  0.06643  1.10137  0.002534  0.001049  0.029160     2.415
   0.94079  0.07568  0.06209  1.08155  0.002297  0.000969  0.033039     2.370
   0.95221  0.06515  0.05767  1.05335  0.002137  0.000907  0.035016     2.357
   0.96284  0.05550  0.05322  1.02229  0.002028  0.000849  0.034738     2.388
   0.97241  0.04692  0.04898  0.99432  0.001855  0.000779  0.037196     2.381
   0.98081  0.03952  0.04501  0.96329  0.001685  0.000713  0.040317     2.364
   0.98816  0.03319  0.04127  0.92735  0.001533  0.000654  0.043426     2.346
   0.99463  0.02777  0.03774  0.88610  0.001405  0.000602  0.045859     2.333
   1.00034  0.02313  0.03441  0.84015  0.001289  0.000555  0.047911     2.321
   1.00542  0.01915  0.03125  0.78824  0.001180  0.000514  0.050281     2.296
   1.00996  0.01574  0.02825  0.73071  0.001108  0.000480  0.049176     2.306
   1.01405  0.01281  0.02541  0.67092  0.001014  0.000443  0.050176     2.289
   1.01775  0.01030  0.02269  0.60335  0.000937  0.000411  0.049075     2.282
   1.02112  0.00816  0.02007  0.52654  0.000863  0.000384  0.047936     2.249
   1.02423  0.00634  0.01756  0.44122  0.000829  0.000368  0.041655     2.254
   1.02710  0.00481  0.01513  0.35717  0.000772  0.000339  0.035347     2.279
   1.02975  0.00353  0.01281  0.25965  0.000702  0.000318  0.030221     2.206
   1.03221  0.00250  0.01057  0.15727  0.000734  0.000326  0.016841     2.249
   1.03452  0.00166  0.00842  0.06085  0.000662  0.000297  0.007351     2.230
   1.03670  0.00100  0.00634 -0.04394  0.000662  0.000297  0.005313     2.230
   1.03878  0.00049  0.00433 -0.18496  0.000509  0.000231  0.029712     2.205
   1.04077  0.00014  0.00237 -0.31967  0.000580  0.000253  0.041540     2.295
   1.04268 -0.00001  0.00047 -0.46563  0.000503  0.000233  0.078806     2.158
   1.04452  0.00009 -0.00138 -0.63896  0.000484  0.000217  0.105365     2.233
   1.04638  0.00049 -0.00318 -0.79274  0.000503  0.000223  0.123743     2.250
   1.04830  0.00119 -0.00498 -0.91720  0.000557  0.000243  0.124433     2.293
   1.05035  0.00220 -0.00676 -1.01654  0.000614  0.000267  0.123813     2.303
   1.05254  0.00351 -0.00851 -1.09350  0.000690  0.000296  0.114808     2.337
   1.05487  0.00512 -0.01021 -1.14921  0.000780  0.000329  0.103794     2.367
   1.05738  0.00701 -0.01184 -1.18282  0.000904  0.000373  0.086728     2.427
   1.06008  0.00920 -0.01343 -1.19944  0.001050  0.000423  0.071529     2.482
   1.06301  0.01168 -0.01499 -1.21041  0.001179  0.000473  0.063605     2.492
   1.06622  0.01448 -0.01656 -1.21856  0.001310  0.000523  0.056900     2.504
   1.06978  0.01766 -0.01815 -1.22223  0.001469  0.000579  0.049134     2.537
   1.07377  0.02129 -0.01981 -1.22695  0.001594  0.000632  0.046172     2.522
   1.07825  0.02543 -0.02154 -1.23084  0.001739  0.000688  0.042183     2.528
   1.08332  0.03017 -0.02333 -1.23709  0.001855  0.000741  0.040812     2.504
   1.08907  0.03561 -0.02519 -1.24212  0.002010  0.000800  0.037440     2.513
   1.09564  0.04190 -0.02708 -1.24617  0.002179  0.000864  0.034308     2.522
   1.10320  0.04922 -0.02900 -1.24693  0.002401  0.000939  0.030002     2.556
   1.11196  0.05776 -0.03093 -1.24398  0.002675  0.001028  0.025528     2.602
   1.12207  0.06768 -0.03288 -1.23852  0.002977  0.001128  0.021846     2.640
   1.13350  0.07895 -0.03481 -1.23316  0.003254  0.001229  0.019738     2.647
   1.14613  0.09144 -0.03664 -1.22702  0.003562  0.001337  0.017570     2.665
   1.15994  0.10515 -0.03835 -1.21978  0.003906  0.001451  0.015408     2.692
   1.17469  0.11981 -0.03996 -1.21435  0.004170  0.001557  0.014624     2.678
   1.18993  0.13498 -0.04141 -1.20995  0.004421  0.001659  0.013939     2.666
   1.20552  0.15051 -0.04267 -1.20591  0.004682  0.001758  0.013151     2.664
   1.22143  0.16639 -0.04375 -1.20219  0.004937  0.001854  0.012439     2.663
   1.23764  0.18258 -0.04467 -1.19844  0.005204  0.001949  0.011680     2.669
   1.25400  0.19892 -0.04546 -1.19583  0.005407  0.002035  0.011393     2.656
   1.27036  0.21526 -0.04609 -1.19335  0.005622  0.002120  0.010986     2.652
   1.28677  0.23166 -0.04656 -1.19077  0.005852  0.002203  0.010487     2.656
   1.30335  0.24824 -0.04689 -1.18824  0.006080  0.002286  0.010025     2.660
   1.32002  0.26491 -0.04711 -1.18598  0.006289  0.002365  0.009676     2.660
   1.33663  0.28153 -0.04721 -1.18394  0.006486  0.002440  0.009385     2.658
   1.35321  0.29810 -0.04717 -1.18165  0.006708  0.002517  0.008981     2.665
   1.36986  0.31475 -0.04699 -1.17929  0.006932  0.002593  0.008590     2.673
   1.38656  0.33145 -0.04670 -1.17678  0.007166  0.002670  0.008184     2.684
   1.40323  0.34811 -0.04629 -1.17429  0.007393  0.002745  0.007824     2.693
   1.41985  0.36473 -0.04576 -1.17155  0.007642  0.002822  0.007413     2.708
   1.43647  0.38133 -0.04510 -1.16854  0.007913  0.002900  0.006964     2.728
   1.45309  0.39793 -0.04431 -1.16516  0.008215  0.002981  0.006461     2.756
   1.46972  0.41453 -0.04339 -1.16151  0.008543  0.003065  0.005943     2.787
   1.48633  0.43111 -0.04234 -1.15746  0.008916  0.003152  0.005369     2.829
   1.50291  0.44765 -0.04116 -1.15316  0.009321  0.003241  0.004792     2.876
   1.51945  0.46414 -0.03985 -1.14854  0.009782  0.003334  0.004179     2.934
   1.53596  0.48059 -0.03840 -1.14366  0.010306  0.003429  0.003539     3.005
   1.55247  0.49701 -0.03680 -1.13851  0.010930  0.003529  0.002848     3.097
   1.56903  0.51348 -0.03504 -1.13328  0.011640  0.003630  0.002167     3.207
   1.58574  0.53008 -0.03313 -1.12809  0.012447  0.003731  0.001513     3.336
   1.60264  0.54687 -0.03109 -1.12312  0.013327  0.003829  0.000937     3.480
   1.61973  0.56382 -0.02896 -1.11847  0.014252  0.003923  0.000462     3.633
   1.63695  0.58089 -0.02675 -1.11415  0.015201  0.004013  0.000088     3.788
   1.65426  0.59806 -0.02449 -1.11015  0.016167  0.004098 -0.000198     3.945
   1.67164  0.61529 -0.02221 -1.10643  0.017116  0.004179 -0.000402     4.095
   1.68905  0.63255 -0.01994 -1.10295  0.018036  0.004258 -0.000542     4.236
   1.70644  0.64979 -0.01769 -1.09967  0.018916  0.004334 -0.000635     4.364
   1.72377  0.66698 -0.01547 -1.09659  0.019748  0.004408 -0.000695     4.480
   1.74101  0.68409 -0.01330 -1.09370  0.020526  0.004480 -0.000731     4.582
   1.75815  0.70109 -0.01119 -1.09098  0.021230  0.004549 -0.000750     4.667
   1.77520  0.71802 -0.00917 -1.08840  0.021849  0.004616 -0.000757     4.733
   1.79217  0.73488 -0.00723 -1.08593  0.022378  0.004682 -0.000757     4.780
   1.80907  0.75168 -0.00538 -1.08355  0.022811  0.004747 -0.000751     4.806
   1.82588  0.76841 -0.00365 -1.08124  0.023145  0.004811 -0.000740     4.811
   1.84259  0.78504 -0.00203 -1.07899  0.023360  0.004874 -0.000725     4.793
   1.85920  0.80157 -0.00054 -1.07679  0.023457  0.004937 -0.000705     4.751
   1.87568  0.81800  0.00080 -1.07462  0.023421  0.004999 -0.000677     4.685
   1.89204  0.83432  0.00198 -1.07248  0.023242  0.005061 -0.000638     4.592
   1.90829  0.85054  0.00299 -1.07036  0.022909  0.005122 -0.000580     4.472
   1.92442  0.86665  0.00381 -1.06827  0.022417  0.005183 -0.000492     4.325
   1.94041  0.88262  0.00443 -1.06620  0.021772  0.005243 -0.000359     4.153
   1.95619  0.89840  0.00486 -1.06421  0.020968  0.005301 -0.000158     3.956
   1.97170  0.91391  0.00506 -1.06246  0.020004  0.005352  0.000142     3.737
   1.98685  0.92905  0.00502 -1.06125  0.018880  0.005389  0.000579     3.503
   2.00150  0.94370  0.00473 -1.06106  0.017609  0.005400  0.001198     3.261
   2.01546  0.95766  0.00418 -1.06255  0.016215  0.005371  0.002045     3.019
   2.02853  0.97070  0.00337 -1.06649  0.014729  0.005289  0.003177     2.785
   2.04056  0.98268  0.00230 -1.07370  0.013196  0.005145  0.004657     2.565
   2.05143  0.99347  0.00100 -1.08493  0.011675  0.004937  0.006556     2.365
   2.05803  1.00000  0.00000 -1.08174  0.012166  0.005019  0.005913     2.424
   2.05803  1.00010 -0.00002  1.08174  0.137745  0.008800  0.000000    15.652
   2.06467  1.00659 -0.00142  1.07893  0.132684  0.009198  0.000000    14.425
   2.07243  1.01422 -0.00280  1.07581  0.130285  0.009634  0.000000    13.523
   2.08150  1.02317 -0.00425  1.07209  0.127884  0.010151  0.000000    12.598
   2.09210  1.03366 -0.00580  1.06762  0.125332  0.010768  0.000000    11.640
   2.10448  1.04593 -0.00747  1.06223  0.122470  0.011507  0.000000    10.643
   2.11896  1.06029 -0.00927  1.05571  0.119173  0.012399  0.000000     9.611
   2.13587  1.07710 -0.01121  1.04778  0.115311  0.013480  0.000000     8.555
   2.15564  1.09676 -0.01330  1.03807  0.110744  0.014797  0.000000     7.484
   2.17875  1.11975 -0.01555  1.02606  0.105316  0.016421  0.000000     6.413
   2.20575  1.14665 -0.01795  1.01089  0.098874  0.018467  0.000000     5.354
   2.23731  1.17810 -0.02051  0.99103  0.091312  0.021149  0.000000     4.318
   2.27420  1.21489 -0.02323  0.96907  0.082446  0.024120  0.000000     3.418
   2.31730  1.25790 -0.02610  0.95015  0.072399  0.026654  0.000000     2.716
   2.36768  1.30819 -0.02910  0.93736  0.061860  0.028311  0.000000     2.185
   2.42656  1.36699 -0.03222  0.93337  0.051884  0.028797  0.000000     1.802
   2.49537  1.43572 -0.03542  0.93780  0.043500  0.028301  0.000000     1.537
   2.57580  1.51608 -0.03867  0.94725  0.037169  0.027340  0.000000     1.360
   2.66978  1.61001 -0.04191  0.95787  0.032711  0.026352  0.000000     1.241
   2.77963  1.71981 -0.04508  0.96741  0.029664  0.025530  0.000000     1.162
   2.90801  1.84815 -0.04811  0.97519  0.027600  0.024897  0.000000     1.109
   3.05804  1.99816 -0.05089  0.98493  0.025884  0.024144  0.000000     1.072
