#    s        x        y     Ue/Vinf    Dstar     Theta      Cf       H
   0.00000  1.00000  0.00000  1.07094  0.111067  0.003966 -0.000252    28.007
   0.00667  0.99364  0.00201  1.07073  0.107584  0.003991 -0.000755    26.956
   0.01801  0.98283  0.00544  1.07067  0.104469  0.004001 -0.000754    26.108
   0.03089  0.97055  0.00931  1.07062  0.101115  0.004011 -0.000753    25.209
   0.04491  0.95712  0.01335  1.07059  0.097706  0.004019 -0.000752    24.313
   0.05974  0.94286  0.01740  1.07058  0.094332  0.004024 -0.000752    23.442
   0.07527  0.92786  0.02141  1.07060  0.091018  0.004027 -0.000753    22.602
   0.09142  0.91220  0.02541  1.07065  0.087712  0.004028 -0.000753    21.774
   0.10802  0.89609  0.02942  1.07070  0.084377  0.004029 -0.000754    20.943
   0.12488  0.87971  0.03341  1.07077  0.081017  0.004029 -0.000756    20.109
   0.14188  0.86318  0.03738  1.07084  0.077644  0.004029 -0.000757    19.274
   0.15896  0.84656  0.04130  1.07093  0.074261  0.004028 -0.000759    18.438
   0.17607  0.82989  0.04517  1.07102  0.070878  0.004026 -0.000761    17.603
   0.19318  0.81321  0.04899  1.07112  0.067503  0.004025 -0.000763    16.773
   0.21029  0.79652  0.05273  1.07124  0.064140  0.004022 -0.000766    15.947
   0.22743  0.77978  0.05643  1.07138  0.060787  0.004018 -0.000769    15.127
   0.24453  0.76308  0.06007  1.07155  0.057436  0.004014 -0.000773    14.309
   0.26151  0.74647  0.06361  1.07174  0.054130  0.004008 -0.000777    13.505
   0.27839  0.72994  0.06704  1.07198  0.050887  0.004001 -0.000783    12.720
   0.29522  0.71344  0.07036  1.07227  0.047714  0.003991 -0.000789    11.956
   0.31203  0.69694  0.07357  1.07263  0.044610  0.003978 -0.000797    11.213
   0.32881  0.68046  0.07667  1.07308  0.041583  0.003963 -0.000807    10.493
   0.34552  0.66401  0.07965  1.07363  0.038644  0.003944 -0.000818     9.798
   0.36216  0.64761  0.08250  1.07431  0.035807  0.003922 -0.000833     9.131
   0.37877  0.63123  0.08521  1.07515  0.033082  0.003894 -0.000850     8.495
   0.39539  0.61480  0.08779  1.07619  0.030475  0.003862 -0.000871     7.890
   0.41202  0.59836  0.09025  1.07747  0.027961  0.003825 -0.000898     7.310
   0.42857  0.58198  0.09257  1.07903  0.025572  0.003782 -0.000932     6.762
   0.44503  0.56566  0.09473  1.08094  0.023324  0.003732 -0.000974     6.250
   0.46148  0.54933  0.09674  1.08328  0.021229  0.003675 -0.001021     5.777
   0.47798  0.53293  0.09860  1.08614  0.019272  0.003610 -0.001052     5.339
   0.49446  0.51655  0.10033  1.08958  0.017433  0.003536 -0.001043     4.930
   0.51082  0.50026  0.10190  1.09366  0.015750  0.003455 -0.000935     4.559
   0.52710  0.48404  0.10328  1.09841  0.014239  0.003366 -0.000676     4.230
   0.54339  0.46779  0.10449  1.10377  0.012888  0.003271 -0.000236     3.940
   0.55971  0.45151  0.10554  1.10984  0.011680  0.003168  0.000396     3.687
   0.57600  0.43525  0.10643  1.11667  0.010586  0.003056  0.001238     3.464
   0.59218  0.41907  0.10713  1.12403  0.009645  0.002940  0.002214     3.281
   0.60829  0.40298  0.10765  1.13172  0.008822  0.002820  0.003317     3.128
   0.62434  0.38693  0.10796  1.13935  0.008131  0.002702  0.004439     3.009
   0.64042  0.37085  0.10808  1.14678  0.007526  0.002586  0.005616     2.910
   0.65651  0.35476  0.10800  1.15383  0.006987  0.002473  0.006856     2.826
   0.67249  0.33878  0.10774  1.16038  0.006491  0.002362  0.008228     2.748
   0.68825  0.32303  0.10727  1.16584  0.006067  0.002259  0.009561     2.685
   0.70393  0.30737  0.10654  1.17004  0.005708  0.002164  0.010789     2.638
   0.71975  0.29158  0.10557  1.17280  0.005420  0.002076  0.011756     2.611
   0.73559  0.27578  0.10439  1.17523  0.005110  0.001985  0.013036     2.574
   0.75115  0.26028  0.10302  1.17682  0.004788  0.001896  0.014683     2.526
   0.76650  0.24502  0.10139  1.17593  0.004538  0.001817  0.015965     2.497
   0.78192  0.22972  0.09944  1.17276  0.004355  0.001747  0.016676     2.493
   0.79744  0.21436  0.09725  1.16928  0.004145  0.001673  0.017734     2.478
   0.81279  0.19920  0.09484  1.16496  0.003910  0.001596  0.019279     2.451
   0.82793  0.18429  0.09217  1.15777  0.003735  0.001528  0.020180     2.445
   0.84302  0.16950  0.08922  1.14954  0.003549  0.001457  0.021288     2.435
   0.85806  0.15481  0.08599  1.13951  0.003378  0.001388  0.022202     2.434
   0.87291  0.14036  0.08253  1.12847  0.003190  0.001314  0.023452     2.427
   0.88737  0.12638  0.07886  1.11581  0.002970  0.001237  0.025566     2.401
   0.90140  0.11290  0.07496  1.09875  0.002792  0.001168  0.027069     2.390
   0.91519  0.09977  0.07076  1.07855  0.002647  0.001101  0.027657     2.403
   0.92848  0.08721  0.06643  1.05815  0.002459  0.001025  0.029347     2.399
   0.94079  0.07568  0.06209  1.03467  0.002231  0.000947  0.032980     2.356
   0.95221  0.06515  0.05767  1.00261  0.002076  0.000886  0.034749     2.344
   0.96284  0.05550  0.05322  0.96739  0.001962  0.000829  0.034680     2.367
   0.97241  0.04692  0.04898  0.93400  0.001798  0.000762  0.036802     2.360
   0.98081  0.03952  0.04501  0.89760  0.001641  0.000698  0.039082     2.351
   0.98816  0.03319  0.04127  0.85671  0.001488  0.000639  0.042070     2.328
   0.99463  0.02777  0.03774  0.80913  0.001366  0.000591  0.043903     2.313
   1.00034  0.02313  0.03441  0.75760  0.001268  0.000547  0.044121     2.317
   1.00542  0.01915  0.03125  0.70227  0.001153  0.000503  0.046116     2.290
   1.00996  0.01574  0.02825  0.63852  0.001071  0.000470  0.045597     2.279
   1.01405  0.01281  0.02541  0.57202  0.001001  0.000436  0.043031     2.296
   1.01775  0.01030  0.02269  0.49905  0.000901  0.000400  0.043368     2.253
   1.02112  0.00816  0.02007  0.41243  0.000862  0.000385  0.038026     2.237
   1.02423  0.00634  0.01756  0.32681  0.000833  0.000367  0.030358     2.267
   1.02710  0.00481  0.01513  0.23875  0.000740  0.000328  0.025174     2.256
   1.02975  0.00353  0.01281  0.13225  0.000682  0.000306  0.015571     2.225
   1.03221  0.00250  0.01057  0.02418  0.000714  0.000320  0.002710     2.230
   1.03452  0.00166  0.00842 -0.07129  0.000714  0.000320  0.007991     2.230
   1.03670  0.00100  0.00634 -0.19326  0.000572  0.000260  0.027835     2.197
   1.03878  0.00049  0.00433 -0.33504  0.000557  0.000248  0.047530     2.244
   1.04077  0.00014  0.00237 -0.47600  0.000541  0.000244  0.071457     2.214
   1.04268 -0.00001  0.00047 -0.63104  0.000510  0.000231  0.101079     2.207
   1.04452  0.00009 -0.00138 -0.80914  0.000471  0.000215  0.141750     2.195
   1.04638  0.00049 -0.00318 -0.96922  0.000500  0.000220  0.149501     2.270
   1.04830  0.00119 -0.00498 -1.08304  0.000564  0.000244  0.141804     2.317
   1.05035  0.00220 -0.00676 -1.17756  0.000614  0.000266  0.143249     2.306
   1.05254  0.00351 -0.00851 -1.24344  0.000710  0.000299  0.122265     2.376
   1.05487  0.00512 -0.01021 -1.28700  0.000804  0.000335  0.109106     2.399
   1.05738  0.00701 -0.01184 -1.31073  0.000936  0.000380  0.089428     2.464
   1.06008  0.00920 -0.01343 -1.31994  0.001085  0.000431  0.073207     2.520
   1.06301  0.01168 -0.01499 -1.32200  0.001237  0.000484  0.061725     2.557
   1.06622  0.01448 -0.01656 -1.32129  0.001386  0.000538  0.053844     2.577
   1.06978  0.01766 -0.01815 -1.31916  0.001539  0.000594  0.047642     2.591
   1.07377  0.02129 -0.01981 -1.31662  0.001692  0.000651  0.042933     2.598
   1.07825  0.02543 -0.02154 -1.31488  0.001837  0.000709  0.039804     2.591
   1.08332  0.03017 -0.02333 -1.31425  0.001979  0.000767  0.037453     2.578
   1.08907  0.03561 -0.02519 -1.31405  0.002131  0.000828  0.035004     2.573
   1.09564  0.04190 -0.02708 -1.31232  0.002322  0.000897  0.031485     2.589
   1.10320  0.04922 -0.02900 -1.30765  0.002566  0.000977  0.027172     2.627
   1.11196  0.05776 -0.03093 -1.29982  0.002863  0.001069  0.022803     2.677
   1.12207  0.06768 -0.03288 -1.29043  0.003178  0.001171  0.019517     2.713
   1.13350  0.07895 -0.03481 -1.28092  0.003487  0.001277  0.017296     2.730
   1.14613  0.09144 -0.03664 -1.27092  0.003826  0.001390  0.015189     2.753
   1.15994  0.10515 -0.03835 -1.26023  0.004204  0.001509  0.013141     2.785
   1.17469  0.11981 -0.03996 -1.25121  0.004507  0.001622  0.012288     2.778
   1.18993  0.13498 -0.04141 -1.24384  0.004771  0.001729  0.011809     2.760
   1.20552  0.15051 -0.04267 -1.23708  0.005052  0.001833  0.011145     2.757
   1.22143  0.16639 -0.04375 -1.23071  0.005341  0.001935  0.010445     2.760
   1.23764  0.18258 -0.04467 -1.22485  0.005619  0.002035  0.009859     2.761
   1.25400  0.19892 -0.04546 -1.21989  0.005858  0.002128  0.009525     2.753
   1.27036  0.21526 -0.04609 -1.21546  0.006088  0.002217  0.009211     2.746
   1.28677  0.23166 -0.04656 -1.21106  0.006342  0.002307  0.008768     2.750
   1.30335  0.24824 -0.04689 -1.20674  0.006601  0.002395  0.008322     2.756
   1.32002  0.26491 -0.04711 -1.20277  0.006840  0.002480  0.007984     2.758
   1.33663  0.28153 -0.04721 -1.19904  0.007072  0.002562  0.007682     2.760
   1.35321  0.29810 -0.04717 -1.19529  0.007319  0.002644  0.007325     2.768
   1.36986  0.31475 -0.04699 -1.19137  0.007592  0.002728  0.006901     2.783
   1.38656  0.33145 -0.04670 -1.18743  0.007870  0.002812  0.006496     2.799
   1.40323  0.34811 -0.04629 -1.18341  0.008161  0.002895  0.006080     2.819
   1.41985  0.36473 -0.04576 -1.17933  0.008464  0.002979  0.005668     2.841
   1.43647  0.38133 -0.04510 -1.17495  0.008814  0.003067  0.005175     2.874
   1.45309  0.39793 -0.04431 -1.17035  0.009202  0.003156  0.004653     2.916
   1.46972  0.41453 -0.04339 -1.16550  0.009640  0.003248  0.004091     2.968
   1.48633  0.43111 -0.04234 -1.16052  0.010118  0.003342  0.003528     3.028
   1.50291  0.44765 -0.04116 -1.15540  0.010661  0.003438  0.002944     3.101
   1.51945  0.46414 -0.03985 -1.15018  0.011281  0.003535  0.002341     3.191
   1.53596  0.48059 -0.03840 -1.14503  0.011975  0.003633  0.001755     3.296
   1.55247  0.49701 -0.03680 -1.13994  0.012794  0.003730  0.001158     3.430
   1.56903  0.51348 -0.03504 -1.13511  0.013715  0.003824  0.000611     3.587
   1.58574  0.53008 -0.03313 -1.13060  0.014751  0.003913  0.000133     3.769
   1.60264  0.54687 -0.03109 -1.12646  0.015876  0.003998 -0.000247     3.971
   1.61973  0.56382 -0.02896 -1.12265  0.017051  0.004079 -0.000519     4.181
   1.63695  0.58089 -0.02675 -1.11911  0.018262  0.004156 -0.000696     4.394
   1.65426  0.59806 -0.02449 -1.11585  0.019488  0.004230 -0.000801     4.607
   1.67164  0.61529 -0.02221 -1.11288  0.020706  0.004301 -0.000853     4.814
   1.68905  0.63255 -0.01994 -1.11017  0.021888  0.004368 -0.000871     5.011
   1.70644  0.64979 -0.01769 -1.10768  0.023028  0.004432 -0.000871     5.196
   1.72377  0.66698 -0.01547 -1.10538  0.024119  0.004493 -0.000861     5.368
   1.74101  0.68409 -0.01330 -1.10326  0.025143  0.004552 -0.000848     5.524
   1.75815  0.70109 -0.01119 -1.10126  0.026089  0.004609 -0.000833     5.661
   1.77520  0.71802 -0.00917 -1.09938  0.026936  0.004664 -0.000817     5.775
   1.79217  0.73488 -0.00723 -1.09758  0.027689  0.004719 -0.000802     5.868
   1.80907  0.75168 -0.00538 -1.09584  0.028330  0.004773 -0.000788     5.936
   1.82588  0.76841 -0.00365 -1.09415  0.028862  0.004826 -0.000776     5.980
   1.84259  0.78504 -0.00203 -1.09249  0.029262  0.004879 -0.000765     5.997
   1.85920  0.80157 -0.00054 -1.09086  0.029529  0.004933 -0.000756     5.986
   1.87568  0.81800  0.00080 -1.08923  0.029647  0.004987 -0.000749     5.945
   1.89204  0.83432  0.00198 -1.08759  0.029605  0.005041 -0.000743     5.873
   1.90829  0.85054  0.00299 -1.08593  0.029391  0.005096 -0.000739     5.767
   1.92442  0.86665  0.00381 -1.08425  0.028997  0.005153 -0.000734     5.628
   1.94041  0.88262  0.00443 -1.08253  0.028428  0.005210 -0.000727     5.457
   1.95619  0.89840  0.00486 -1.08079  0.027672  0.005267 -0.000716     5.254
   1.97170  0.91391  0.00506 -1.07902  0.026727  0.005324 -0.000696     5.020
   1.98685  0.92905  0.00502 -1.07724  0.025591  0.005380 -0.000648     4.756
   2.00150  0.94370  0.00473 -1.07551  0.024274  0.005434 -0.000547     4.467
   2.01546  0.95766  0.00418 -1.07387  0.022807  0.005484 -0.000352     4.159
   2.02853  0.97070  0.00337 -1.07246  0.021228  0.005526 -0.000013     3.841
   2.04056  0.98268  0.00230 -1.07175  0.019603  0.005548  0.000504     3.533
   2.05143  0.99347  0.00100 -1.07226  0.018025  0.005538  0.001197     3.255
   2.05803  1.00000  0.00000 -1.07094  0.018578  0.005577  0.000975     3.331
   2.05803  1.00010 -0.00002  1.07094  0.129645  0.009543  0.000000    13.586
   2.06467  1.00659 -0.00142  1.06760  0.124130  0.010001  0.000000    12.412
   2.07243  1.01422 -0.00281  1.06390  0.121476  0.010499  0.000000    11.570
   2.08150  1.02317 -0.00429  1.05949  0.118813  0.011087  0.000000    10.716
   2.09210  1.03365 -0.00587  1.05422  0.115986  0.011787  0.000000     9.840
   2.10448  1.04591 -0.00758  1.04788  0.112825  0.012626  0.000000     8.936
   2.11896  1.06027 -0.00943  1.04021  0.109202  0.013636  0.000000     8.008
   2.13587  1.07706 -0.01145  1.03086  0.104987  0.014862  0.000000     7.064
   2.15564  1.09671 -0.01364  1.01934  0.100046  0.016367  0.000000     6.113
   2.17875  1.11970 -0.01601  1.00485  0.094254  0.018258  0.000000     5.162
   2.20575  1.14658 -0.01858  0.98592  0.087534  0.020735  0.000000     4.221
   2.23731  1.17801 -0.02136  0.96610  0.079658  0.023335  0.000000     3.414
   2.27420  1.21478 -0.02436  0.94844  0.070733  0.025631  0.000000     2.760
   2.31730  1.25776 -0.02757  0.93563  0.061233  0.027249  0.000000     2.247
   2.36768  1.30803 -0.03102  0.93035  0.051957  0.027881  0.000000     1.864
   2.42656  1.36679 -0.03469  0.93310  0.043813  0.027577  0.000000     1.589
   2.49537  1.43549 -0.03858  0.94157  0.037379  0.026720  0.000000     1.399
   2.57580  1.51581 -0.04270  0.95223  0.032683  0.025736  0.000000     1.270
   2.66978  1.60970 -0.04702  0.96243  0.029402  0.024866  0.000000     1.182
   2.77963  1.71945 -0.05153  0.97107  0.027147  0.024176  0.000000     1.123
   2.90801  1.84774 -0.05621  0.97798  0.025604  0.023650  0.000000     1.083
   3.05804  1.99770 -0.06104  0.98609  0.024332  0.023059  0.000000     1.055
