#    s        x        y     Ue/Vinf    Dstar     Theta      Cf       H
   0.00000  1.00000  0.00000  0.88005  0.025532  0.010745  0.000446     2.376
   0.00667  0.99364  0.00201  0.88877  0.023476  0.010291  0.000553     2.281
   0.01801  0.98283  0.00544  0.90086  0.021424  0.009710  0.000667     2.206
   0.03089  0.97055  0.00931  0.91520  0.019448  0.009081  0.000795     2.142
   0.04491  0.95712  0.01335  0.93054  0.017784  0.008470  0.000909     2.100
   0.05974  0.94286  0.01740  0.94581  0.016520  0.007913  0.000982     2.088
   0.07527  0.92786  0.02141  0.96047  0.015655  0.007419  0.000993     2.110
   0.09142  0.91220  0.02541  0.97490  0.015111  0.006965  0.000938     2.170
   0.10802  0.89609  0.02942  0.98986  0.014819  0.006523  0.000822     2.272
   0.12488  0.87971  0.03341  1.00622  0.014749  0.006067  0.000650     2.431
   0.14188  0.86318  0.03738  1.02530  0.014885  0.005565  0.000445     2.675
   0.15896  0.84656  0.04130  1.04900  0.015195  0.004976  0.000240     3.054
   0.17607  0.82989  0.04517  1.07945  0.015632  0.004268  0.000002     3.663
   0.19318  0.81321  0.04899  1.12046  0.016082  0.003385 -0.000185     4.750
   0.21029  0.79652  0.05273  1.16566  0.016447  0.002500 -0.000248     6.580
   0.22743  0.77978  0.05643  1.21995  0.016494  0.001538 -0.000322    10.725
   0.24453  0.76308  0.06007  1.21364  0.016501  0.001647 -0.000367    10.016
   0.26151  0.74647  0.06361  1.21470  0.016135  0.001632 -0.000372     9.884
   0.27839  0.72994  0.06704  1.21567  0.015583  0.001619 -0.000376     9.623
   0.29522  0.71344  0.07036  1.21661  0.014902  0.001607 -0.000381     9.272
   0.31203  0.69694  0.07357  1.21757  0.014128  0.001595 -0.000387     8.856
   0.32881  0.68046  0.07667  1.21859  0.013289  0.001583 -0.000394     8.392
   0.34552  0.66401  0.07965  1.21971  0.012406  0.001571 -0.000402     7.897
   0.36216  0.64761  0.08250  1.22100  0.011509  0.001557 -0.000413     7.390
   0.37877  0.63123  0.08521  1.22250  0.010622  0.001542 -0.000426     6.887
   0.39539  0.61480  0.08779  1.22431  0.009755  0.001525 -0.000442     6.397
   0.41202  0.59836  0.09025  1.22649  0.008903  0.001506 -0.000462     5.913
   0.42857  0.58198  0.09257  1.22913  0.008081  0.001484 -0.000482     5.447
   0.44503  0.56566  0.09473  1.23233  0.007319  0.001458 -0.000487     5.018
   0.46148  0.54933  0.09674  1.23621  0.006634  0.001430 -0.000458     4.639
   0.47798  0.53293  0.09860  1.24078  0.006010  0.001398 -0.000367     4.297
   0.49446  0.51655  0.10033  1.24594  0.005426  0.001365 -0.000179     3.976
   0.51082  0.50026  0.10190  1.25179  0.004912  0.001328  0.000110     3.699
   0.52710  0.48404  0.10328  1.25833  0.004481  0.001288  0.000467     3.479
   0.54339  0.46779  0.10449  1.26534  0.004128  0.001246  0.000851     3.312
   0.55971  0.45151  0.10554  1.27264  0.003822  0.001204  0.001266     3.175
   0.57600  0.43525  0.10643  1.28014  0.003542  0.001161  0.001737     3.052
   0.59218  0.41907  0.10713  1.28736  0.003307  0.001119  0.002198     2.956
   0.60829  0.40298  0.10765  1.29419  0.003103  0.001078  0.002655     2.877
   0.62434  0.38693  0.10796  1.30040  0.002931  0.001040  0.003076     2.818
   0.64042  0.37085  0.10808  1.30594  0.002785  0.001004  0.003449     2.775
   0.65651  0.35476  0.10800  1.31117  0.002646  0.000968  0.003848     2.734
   0.67249  0.33878  0.10774  1.31647  0.002493  0.000930  0.004392     2.680
   0.68825  0.32303  0.10727  1.32101  0.002348  0.000895  0.004996     2.625
   0.70393  0.30737  0.10654  1.32326  0.002253  0.000864  0.005338     2.606
   0.71975  0.29158  0.10557  1.32440  0.002180  0.000836  0.005524     2.606
   0.73559  0.27578  0.10439  1.32659  0.002073  0.000804  0.006011     2.577
   0.75115  0.26028  0.10302  1.32891  0.001940  0.000770  0.006847     2.521
   0.76650  0.24502  0.10139  1.32790  0.001849  0.000741  0.007383     2.495
   0.78192  0.22972  0.09944  1.32403  0.001801  0.000718  0.007460     2.508
   0.79744  0.21436  0.09725  1.32117  0.001730  0.000691  0.007787     2.503
   0.81279  0.19920  0.09484  1.31875  0.001633  0.000661  0.008525     2.471
   0.82793  0.18429  0.09217  1.31325  0.001563  0.000635  0.008947     2.463
   0.84302  0.16950  0.08922  1.30630  0.001503  0.000609  0.009215     2.467
   0.85806  0.15481  0.08599  1.29904  0.001441  0.000583  0.009491     2.473
   0.87291  0.14036  0.08253  1.29192  0.001368  0.000554  0.009965     2.471
   0.88737  0.12638  0.07886  1.28463  0.001269  0.000521  0.011098     2.435
   0.90140  0.11290  0.07496  1.27248  0.001193  0.000493  0.011898     2.418
   0.91519  0.09977  0.07076  1.25662  0.001157  0.000469  0.011547     2.464
   0.92848  0.08721  0.06643  1.24550  0.001073  0.000437  0.012432     2.457
   0.94079  0.07568  0.06209  1.23238  0.000956  0.000401  0.014873     2.383
   0.95221  0.06515  0.05767  1.20732  0.000897  0.000378  0.015640     2.376
   0.96284  0.05550  0.05322  1.18065  0.000863  0.000356  0.015187     2.422
   0.97241  0.04692  0.04898  1.16034  0.000799  0.000328  0.015882     2.435
   0.98081  0.03952  0.04501  1.14016  0.000717  0.000299  0.018022     2.400
   0.98816  0.03319  0.04127  1.11318  0.000653  0.000274  0.019653     2.382
   0.99463  0.02777  0.03774  1.08164  0.000598  0.000253  0.021114     2.369
   1.00034  0.02313  0.03441  1.04564  0.000547  0.000233  0.022767     2.348
   1.00542  0.01915  0.03125  1.00368  0.000503  0.000216  0.024138     2.332
   1.00996  0.01574  0.02825  0.95735  0.000469  0.000201  0.024546     2.336
   1.01405  0.01281  0.02541  0.90802  0.000428  0.000185  0.026072     2.313
   1.01775  0.01030  0.02269  0.84976  0.000395  0.000172  0.026855     2.295
   1.02112  0.00816  0.02007  0.78341  0.000368  0.000162  0.026936     2.278
   1.02423  0.00634  0.01756  0.71206  0.000349  0.000152  0.025518     2.289
   1.02710  0.00481  0.01513  0.63509  0.000321  0.000142  0.025638     2.252
   1.02975  0.00353  0.01281  0.55043  0.000308  0.000135  0.022335     2.280
   1.03221  0.00250  0.01057  0.45996  0.000283  0.000127  0.021491     2.223
   1.03452  0.00166  0.00842  0.36175  0.000281  0.000124  0.016140     2.270
   1.03670  0.00100  0.00634  0.26144  0.000258  0.000117  0.013201     2.214
   1.03878  0.00049  0.00433  0.15286  0.000259  0.000115  0.007218     2.252
   1.04077  0.00014  0.00237  0.03508  0.000217  0.000098  0.001509     2.230
   1.04268 -0.00001  0.00047 -0.10628  0.000217  0.000098  0.007235     2.230
   1.04452  0.00009 -0.00138 -0.25930  0.000201  0.000091  0.018240     2.215
   1.04638  0.00049 -0.00318 -0.42333  0.000199  0.000089  0.028939     2.236
   1.04830  0.00119 -0.00498 -0.55654  0.000228  0.000099  0.031427     2.290
   1.05035  0.00220 -0.00676 -0.67732  0.000237  0.000106  0.038295     2.240
   1.05254  0.00351 -0.00851 -0.77612  0.000271  0.000117  0.035649     2.316
   1.05487  0.00512 -0.01021 -0.85077  0.000301  0.000130  0.035216     2.312
   1.05738  0.00701 -0.01184 -0.90486  0.000346  0.000147  0.030921     2.363
   1.06008  0.00920 -0.01343 -0.93864  0.000401  0.000167  0.026393     2.409
   1.06301  0.01168 -0.01499 -0.96669  0.000444  0.000185  0.024866     2.397
   1.06622  0.01448 -0.01656 -0.98823  0.000498  0.000205  0.021970     2.425
   1.06978  0.01766 -0.01815 -1.00637  0.000549  0.000226  0.020221     2.430
   1.07377  0.02129 -0.01981 -1.02296  0.000599  0.000246  0.018760     2.432
   1.07825  0.02543 -0.02154 -1.04066  0.000642  0.000266  0.018079     2.417
   1.08332  0.03017 -0.02333 -1.06003  0.000683  0.000284  0.017595     2.402
   1.08907  0.03561 -0.02519 -1.07713  0.000740  0.000306  0.016204     2.419
   1.09564  0.04190 -0.02708 -1.09087  0.000809  0.000331  0.014636     2.443
   1.10320  0.04922 -0.02900 -1.09980  0.000898  0.000362  0.012761     2.482
   1.11196  0.05776 -0.03093 -1.10301  0.001012  0.000399  0.010726     2.535
   1.12207  0.06768 -0.03288 -1.10378  0.001125  0.000440  0.009384     2.560
   1.13350  0.07895 -0.03481 -1.10547  0.001221  0.000479  0.008764     2.549
   1.14613  0.09144 -0.03664 -1.10517  0.001343  0.000522  0.007771     2.571
   1.15994  0.10515 -0.03835 -1.10239  0.001485  0.000570  0.006730     2.606
   1.17469  0.11981 -0.03996 -1.10182  0.001579  0.000612  0.006503     2.583
   1.18993  0.13498 -0.04141 -1.10188  0.001675  0.000651  0.006210     2.571
   1.20552  0.15051 -0.04267 -1.10169  0.001777  0.000691  0.005851     2.572
   1.22143  0.16639 -0.04375 -1.10036  0.001895  0.000732  0.005367     2.590
   1.23764  0.18258 -0.04467 -1.09882  0.002006  0.000771  0.005002     2.601
   1.25400  0.19892 -0.04546 -1.09797  0.002095  0.000807  0.004818     2.595
   1.27036  0.21526 -0.04609 -1.09757  0.002176  0.000841  0.004685     2.586
   1.28677  0.23166 -0.04656 -1.09597  0.002287  0.000878  0.004360     2.605
   1.30335  0.24824 -0.04689 -1.09410  0.002395  0.000914  0.004087     2.620
   1.32002  0.26491 -0.04711 -1.09239  0.002492  0.000949  0.003890     2.626
   1.33663  0.28153 -0.04721 -1.09111  0.002573  0.000981  0.003778     2.623
   1.35321  0.29810 -0.04717 -1.08906  0.002679  0.001015  0.003554     2.639
   1.36986  0.31475 -0.04699 -1.08649  0.002797  0.001051  0.003306     2.662
   1.38656  0.33145 -0.04670 -1.08371  0.002914  0.001086  0.003084     2.683
   1.40323  0.34811 -0.04629 -1.08076  0.003033  0.001121  0.002881     2.704
   1.41985  0.36473 -0.04576 -1.07722  0.003173  0.001159  0.002632     2.738
   1.43647  0.38133 -0.04510 -1.07299  0.003340  0.001199  0.002339     2.786
   1.45309  0.39793 -0.04431 -1.06815  0.003537  0.001241  0.002018     2.850
   1.46972  0.41453 -0.04339 -1.06270  0.003774  0.001286  0.001667     2.935
   1.48633  0.43111 -0.04234 -1.05671  0.004068  0.001334  0.001283     3.049
   1.50291  0.44765 -0.04116 -1.05049  0.004426  0.001383  0.000892     3.200
   1.51945  0.46414 -0.03985 -1.04430  0.004883  0.001432  0.000493     3.409
   1.53596  0.48059 -0.03840 -1.03864  0.005455  0.001479  0.000131     3.689
   1.55247  0.49701 -0.03680 -1.03385  0.006169  0.001519 -0.000153     4.061
   1.56903  0.51348 -0.03504 -1.02982  0.007034  0.001555 -0.000318     4.523
   1.58574  0.53008 -0.03313 -1.02654  0.008044  0.001586 -0.000373     5.071
   1.60264  0.54687 -0.03109 -1.02402  0.009167  0.001612 -0.000369     5.686
   1.61973  0.56382 -0.02896 -1.02211  0.010364  0.001634 -0.000350     6.344
   1.63695  0.58089 -0.02675 -1.02065  0.011613  0.001651 -0.000333     7.033
   1.65426  0.59806 -0.02449 -1.01951  0.012880  0.001666 -0.000321     7.732
   1.67164  0.61529 -0.02221 -1.01860  0.014134  0.001678 -0.000313     8.421
   1.68905  0.63255 -0.01994 -1.01782  0.015345  0.001690 -0.000306     9.082
   1.70644  0.64979 -0.01769 -1.01713  0.016492  0.001700 -0.000301     9.701
   1.72377  0.66698 -0.01547 -1.01651  0.017562  0.001710 -0.000297    10.269
   1.74101  0.68409 -0.01330 -1.01590  0.018532  0.001721 -0.000293    10.771
   1.75815  0.70109 -0.01119 -1.01529  0.019378  0.001732 -0.000290    11.191
   1.77520  0.71802 -0.00917 -1.01466  0.020075  0.001744 -0.000287    11.513
   1.79217  0.73488 -0.00723 -1.01398  0.020601  0.001757 -0.000284    11.724
   1.80907  0.75168 -0.00538 -1.01324  0.020931  0.001773 -0.000281    11.807
   1.82588  0.76841 -0.00365 -1.01240  0.021027  0.001791 -0.000278    11.741
   1.84259  0.78504 -0.00203 -1.01142  0.020820  0.001812 -0.000275    11.488
   1.85920  0.80157 -0.00054 -0.99515  0.020432  0.002210 -0.000219     9.244
   1.87568  0.81800  0.00080 -0.96402  0.019863  0.003026 -0.000176     6.564
   1.89204  0.83432  0.00198 -0.93542  0.019014  0.003822 -0.000139     4.975
   1.90829  0.85054  0.00299 -0.90769  0.018010  0.004637 -0.000006     3.884
   1.92442  0.86665  0.00381 -0.88590  0.016900  0.005305  0.000213     3.186
   1.94041  0.88262  0.00443 -0.87000  0.015779  0.005806  0.000455     2.718
   1.95619  0.89840  0.00486 -0.85915  0.014702  0.006153  0.000728     2.389
   1.97170  0.91391  0.00506 -0.85255  0.013694  0.006369  0.001060     2.150
   1.98685  0.92905  0.00502 -0.84948  0.012759  0.006475  0.001412     1.970
   2.00150  0.94370  0.00473 -0.84948  0.011885  0.006491  0.001777     1.831
   2.01546  0.95766  0.00418 -0.85232  0.011057  0.006427  0.002154     1.720
   2.02853  0.97070  0.00337 -0.85812  0.010246  0.006289  0.002553     1.629
   2.04056  0.98268  0.00230 -0.86750  0.009413  0.006070  0.002999     1.551
   2.05143  0.99347  0.00100 -0.88171  0.008516  0.005754  0.003534     1.480
   2.05803  1.00000  0.00000 -0.88005  0.008525  0.005807  0.003569     1.468
   2.05803  1.00010 -0.00002  0.88005  0.034056  0.016547  0.000000     2.058
   2.06467  1.00659 -0.00142  0.88752  0.030977  0.015997  0.000000     1.936
   2.07243  1.01422 -0.00282  0.89093  0.029317  0.015758  0.000000     1.860
   2.08150  1.02317 -0.00429  0.89457  0.027724  0.015513  0.000000     1.787
   2.09210  1.03364 -0.00588  0.89862  0.026163  0.015251  0.000000     1.715
   2.10448  1.04591 -0.00759  0.90328  0.024613  0.014963  0.000000     1.645
   2.11896  1.06026 -0.00946  0.90865  0.023085  0.014645  0.000000     1.576
   2.13587  1.07706 -0.01148  0.91472  0.021599  0.014302  0.000000     1.510
   2.15564  1.09671 -0.01368  0.92139  0.020182  0.013945  0.000000     1.447
   2.17875  1.11969 -0.01607  0.92849  0.018859  0.013584  0.000000     1.388
   2.20575  1.14657 -0.01866  0.93578  0.017650  0.013231  0.000000     1.334
   2.23731  1.17800 -0.02147  0.94306  0.016564  0.012896  0.000000     1.284
   2.27420  1.21476 -0.02450  0.95011  0.015605  0.012586  0.000000     1.240
   2.31730  1.25775 -0.02776  0.95676  0.014769  0.012306  0.000000     1.200
   2.36768  1.30800 -0.03125  0.96292  0.014050  0.012057  0.000000     1.165
   2.42656  1.36676 -0.03499  0.96851  0.013436  0.011839  0.000000     1.135
   2.49537  1.43546 -0.03898  0.97352  0.012920  0.011649  0.000000     1.109
   2.57580  1.51577 -0.04320  0.97795  0.012491  0.011486  0.000000     1.087
   2.66978  1.60965 -0.04766  0.98181  0.012137  0.011346  0.000000     1.070
   2.77963  1.71940 -0.05234  0.98513  0.011849  0.011228  0.000000     1.055
   2.90801  1.84768 -0.05723  0.98794  0.011619  0.011130  0.000000     1.044
   3.05804  1.99763 -0.06230  0.99077  0.011418  0.011034  0.000000     1.035
