#    s        x        y     Ue/Vinf    Dstar     Theta      Cf       H
   0.00000  1.00000  0.00000  0.88930  0.028099  0.010653  0.000387     2.638
   0.00667  0.99364  0.00201  0.89627  0.025994  0.010277  0.000486     2.529
   0.01801  0.98283  0.00544  0.90647  0.023896  0.009765  0.000584     2.447
   0.03089  0.97055  0.00931  0.91880  0.021845  0.009195  0.000692     2.376
   0.04491  0.95712  0.01335  0.93238  0.020085  0.008621  0.000785     2.330
   0.05974  0.94286  0.01740  0.94642  0.018716  0.008075  0.000842     2.318
   0.07527  0.92786  0.02141  0.96055  0.017746  0.007566  0.000842     2.346
   0.09142  0.91220  0.02541  0.97509  0.017102  0.007077  0.000782     2.417
   0.10802  0.89609  0.02942  0.99067  0.016714  0.006586  0.000667     2.538
   0.12488  0.87971  0.03341  1.00807  0.016546  0.006072  0.000503     2.725
   0.14188  0.86318  0.03738  1.02844  0.016573  0.005505  0.000327     3.011
   0.15896  0.84656  0.04130  1.05334  0.016754  0.004856  0.000128     3.450
   0.17607  0.82989  0.04517  1.08547  0.017018  0.004078 -0.000082     4.173
   0.19318  0.81321  0.04899  1.12221  0.017290  0.003260 -0.000201     5.304
   0.21029  0.79652  0.05273  1.16256  0.017463  0.002439 -0.000255     7.161
   0.22743  0.77978  0.05643  1.20536  0.017386  0.001653 -0.000362    10.515
   0.24453  0.76308  0.06007  1.20648  0.017232  0.001636 -0.000366    10.531
   0.26151  0.74647  0.06361  1.20743  0.016783  0.001623 -0.000370    10.343
   0.27839  0.72994  0.06704  1.20829  0.016155  0.001611 -0.000375    10.030
   0.29522  0.71344  0.07036  1.20914  0.015403  0.001600 -0.000380     9.629
   0.31203  0.69694  0.07357  1.21000  0.014565  0.001589 -0.000385     9.167
   0.32881  0.68046  0.07667  1.21092  0.013664  0.001578 -0.000392     8.660
   0.34552  0.66401  0.07965  1.21195  0.012728  0.001566 -0.000401     8.126
   0.36216  0.64761  0.08250  1.21314  0.011780  0.001554 -0.000411     7.583
   0.37877  0.63123  0.08521  1.21455  0.010848  0.001539 -0.000424     7.048
   0.39539  0.61480  0.08779  1.21627  0.009940  0.001523 -0.000440     6.528
   0.41202  0.59836  0.09025  1.21835  0.009049  0.001504 -0.000461     6.018
   0.42857  0.58198  0.09257  1.22089  0.008194  0.001482 -0.000480     5.528
   0.44503  0.56566  0.09473  1.22401  0.007404  0.001457 -0.000484     5.080
   0.46148  0.54933  0.09674  1.22781  0.006693  0.001429 -0.000451     4.683
   0.47798  0.53293  0.09860  1.23233  0.006047  0.001398 -0.000352     4.326
   0.49446  0.51655  0.10033  1.23747  0.005448  0.001364 -0.000153     3.995
   0.51082  0.50026  0.10190  1.24332  0.004917  0.001327  0.000152     3.706
   0.52710  0.48404  0.10328  1.24987  0.004479  0.001287  0.000516     3.481
   0.54339  0.46779  0.10449  1.25692  0.004117  0.001245  0.000909     3.308
   0.55971  0.45151  0.10554  1.26426  0.003807  0.001202  0.001327     3.169
   0.57600  0.43525  0.10643  1.27178  0.003526  0.001158  0.001798     3.045
   0.59218  0.41907  0.10713  1.27903  0.003287  0.001116  0.002267     2.946
   0.60829  0.40298  0.10765  1.28581  0.003084  0.001075  0.002719     2.869
   0.62434  0.38693  0.10796  1.29195  0.002913  0.001037  0.003135     2.810
   0.64042  0.37085  0.10808  1.29743  0.002767  0.001000  0.003511     2.767
   0.65651  0.35476  0.10800  1.30254  0.002629  0.000964  0.003904     2.727
   0.67249  0.33878  0.10774  1.30771  0.002477  0.000927  0.004445     2.673
   0.68825  0.32303  0.10727  1.31208  0.002334  0.000891  0.005040     2.620
   0.70393  0.30737  0.10654  1.31421  0.002238  0.000861  0.005389     2.600
   0.71975  0.29158  0.10557  1.31516  0.002165  0.000833  0.005571     2.600
   0.73559  0.27578  0.10439  1.31716  0.002059  0.000801  0.006061     2.571
   0.75115  0.26028  0.10302  1.31929  0.001926  0.000766  0.006909     2.514
   0.76650  0.24502  0.10139  1.31788  0.001838  0.000738  0.007421     2.490
   0.78192  0.22972  0.09944  1.31373  0.001790  0.000715  0.007491     2.503
   0.79744  0.21436  0.09725  1.31071  0.001716  0.000688  0.007857     2.496
   0.81279  0.19920  0.09484  1.30770  0.001623  0.000658  0.008539     2.468
   0.82793  0.18429  0.09217  1.30200  0.001551  0.000631  0.009001     2.457
   0.84302  0.16950  0.08922  1.29446  0.001495  0.000607  0.009216     2.464
   0.85806  0.15481  0.08599  1.28700  0.001429  0.000580  0.009555     2.466
   0.87291  0.14036  0.08253  1.27918  0.001358  0.000551  0.009994     2.466
   0.88737  0.12638  0.07886  1.27132  0.001260  0.000519  0.011111     2.430
   0.90140  0.11290  0.07496  1.25859  0.001183  0.000490  0.011936     2.412
   0.91519  0.09977  0.07076  1.24193  0.001147  0.000467  0.011604     2.457
   0.92848  0.08721  0.06643  1.22979  0.001066  0.000434  0.012402     2.454
   0.94079  0.07568  0.06209  1.21598  0.000948  0.000399  0.014903     2.377
   0.95221  0.06515  0.05767  1.18968  0.000891  0.000376  0.015620     2.370
   0.96284  0.05550  0.05322  1.16198  0.000858  0.000355  0.015064     2.420
   0.97241  0.04692  0.04898  1.14091  0.000789  0.000326  0.016085     2.421
   0.98081  0.03952  0.04501  1.11831  0.000713  0.000298  0.017843     2.397
   0.98816  0.03319  0.04127  1.09039  0.000648  0.000273  0.019562     2.376
   0.99463  0.02777  0.03774  1.05712  0.000593  0.000251  0.021074     2.359
   1.00034  0.02313  0.03441  1.01948  0.000547  0.000232  0.022146     2.354
   1.00542  0.01915  0.03125  0.97762  0.000497  0.000214  0.024041     2.324
   1.00996  0.01574  0.02825  0.92840  0.000463  0.000199  0.024500     2.324
   1.01405  0.01281  0.02541  0.87625  0.000427  0.000185  0.025346     2.312
   1.01775  0.01030  0.02269  0.81747  0.000394  0.000172  0.026111     2.294
   1.02112  0.00816  0.02007  0.75039  0.000366  0.000161  0.026114     2.279
   1.02423  0.00634  0.01756  0.67735  0.000345  0.000151  0.024994     2.281
   1.02710  0.00481  0.01513  0.59851  0.000319  0.000141  0.024299     2.260
   1.02975  0.00353  0.01281  0.51051  0.000303  0.000134  0.022035     2.252
   1.03221  0.00250  0.01057  0.41791  0.000289  0.000128  0.018995     2.247
   1.03452  0.00166  0.00842  0.32080  0.000276  0.000123  0.015376     2.239
   1.03670  0.00100  0.00634  0.21952  0.000261  0.000116  0.010989     2.250
   1.03878  0.00049  0.00433  0.10728  0.000240  0.000108  0.005950     2.230
   1.04077  0.00014  0.00237 -0.01371  0.000240  0.000108  0.000760     2.230
   1.04268 -0.00001  0.00047 -0.15497  0.000206  0.000092  0.010099     2.224
   1.04452  0.00009 -0.00138 -0.31855  0.000197  0.000088  0.021669     2.226
   1.04638  0.00049 -0.00318 -0.47485  0.000206  0.000091  0.030214     2.250
   1.04830  0.00119 -0.00498 -0.60836  0.000224  0.000099  0.034998     2.266
   1.05035  0.00220 -0.00676 -0.72475  0.000243  0.000107  0.038369     2.270
   1.05254  0.00351 -0.00851 -0.82212  0.000269  0.000117  0.038409     2.296
   1.05487  0.00512 -0.01021 -0.89308  0.000307  0.000131  0.035141     2.338
   1.05738  0.00701 -0.01184 -0.94453  0.000347  0.000147  0.032115     2.360
   1.06008  0.00920 -0.01343 -0.97526  0.000407  0.000168  0.026465     2.426
   1.06301  0.01168 -0.01499 -0.99974  0.000451  0.000187  0.024826     2.413
   1.06622  0.01448 -0.01656 -1.01921  0.000504  0.000207  0.022175     2.434
   1.06978  0.01766 -0.01815 -1.03594  0.000554  0.000227  0.020423     2.438
   1.07377  0.02129 -0.01981 -1.04981  0.000610  0.000249  0.018524     2.452
   1.07825  0.02543 -0.02154 -1.06628  0.000649  0.000268  0.018226     2.423
   1.08332  0.03017 -0.02333 -1.08284  0.000697  0.000288  0.017262     2.421
   1.08907  0.03561 -0.02519 -1.09909  0.000748  0.000309  0.016321     2.422
   1.09564  0.04190 -0.02708 -1.11144  0.000820  0.000334  0.014584     2.453
   1.10320  0.04922 -0.02900 -1.11864  0.000912  0.000366  0.012605     2.496
   1.11196  0.05776 -0.03093 -1.12073  0.001025  0.000403  0.010652     2.545
   1.12207  0.06768 -0.03288 -1.12032  0.001141  0.000444  0.009277     2.573
   1.13350  0.07895 -0.03481 -1.12051  0.001242  0.000484  0.008586     2.567
   1.14613  0.09144 -0.03664 -1.11932  0.001362  0.000527  0.007675     2.584
   1.15994  0.10515 -0.03835 -1.11573  0.001506  0.000575  0.006642     2.619
   1.17469  0.11981 -0.03996 -1.11410  0.001605  0.000617  0.006361     2.600
   1.18993  0.13498 -0.04141 -1.11344  0.001700  0.000657  0.006106     2.585
   1.20552  0.15051 -0.04267 -1.11259  0.001802  0.000697  0.005750     2.586
   1.22143  0.16639 -0.04375 -1.11066  0.001922  0.000738  0.005270     2.604
   1.23764  0.18258 -0.04467 -1.10862  0.002034  0.000778  0.004912     2.615
   1.25400  0.19892 -0.04546 -1.10742  0.002122  0.000814  0.004747     2.607
   1.27036  0.21526 -0.04609 -1.10659  0.002205  0.000848  0.004606     2.599
   1.28677  0.23166 -0.04656 -1.10464  0.002317  0.000885  0.004286     2.617
   1.30335  0.24824 -0.04689 -1.10234  0.002429  0.000922  0.003996     2.635
   1.32002  0.26491 -0.04711 -1.10055  0.002520  0.000956  0.003839     2.636
   1.33663  0.28153 -0.04721 -1.09891  0.002607  0.000989  0.003706     2.636
   1.35321  0.29810 -0.04717 -1.09652  0.002717  0.001024  0.003473     2.654
   1.36986  0.31475 -0.04699 -1.09373  0.002835  0.001059  0.003231     2.677
   1.38656  0.33145 -0.04670 -1.09083  0.002951  0.001095  0.003023     2.696
   1.40323  0.34811 -0.04629 -1.08763  0.003075  0.001130  0.002809     2.720
   1.41985  0.36473 -0.04576 -1.08386  0.003219  0.001168  0.002554     2.756
   1.43647  0.38133 -0.04510 -1.07949  0.003390  0.001208  0.002263     2.806
   1.45309  0.39793 -0.04431 -1.07443  0.003597  0.001251  0.001931     2.875
   1.46972  0.41453 -0.04339 -1.06884  0.003842  0.001296  0.001578     2.964
   1.48633  0.43111 -0.04234 -1.06282  0.004142  0.001344  0.001202     3.081
   1.50291  0.44765 -0.04116 -1.05659  0.004511  0.001393  0.000813     3.239
   1.51945  0.46414 -0.03985 -1.05047  0.004985  0.001441  0.000419     3.458
   1.53596  0.48059 -0.03840 -1.04497  0.005570  0.001486  0.000074     3.747
   1.55247  0.49701 -0.03680 -1.04033  0.006299  0.001526 -0.000190     4.129
   1.56903  0.51348 -0.03504 -1.03641  0.007175  0.001561 -0.000334     4.598
   1.58574  0.53008 -0.03313 -1.03325  0.008194  0.001591 -0.000376     5.151
   1.60264  0.54687 -0.03109 -1.03083  0.009323  0.001616 -0.000369     5.770
   1.61973  0.56382 -0.02896 -1.02900  0.010526  0.001636 -0.000349     6.432
   1.63695  0.58089 -0.02675 -1.02759  0.011772  0.001653 -0.000333     7.120
   1.65426  0.59806 -0.02449 -1.02650  0.013037  0.001667 -0.000322     7.819
   1.67164  0.61529 -0.02221 -1.02560  0.014280  0.001680 -0.000313     8.502
   1.68905  0.63255 -0.01994 -1.02484  0.015479  0.001691 -0.000307     9.156
   1.70644  0.64979 -0.01769 -1.02416  0.016608  0.001701 -0.000302     9.763
   1.72377  0.66698 -0.01547 -1.02353  0.017657  0.001711 -0.000298    10.318
   1.74101  0.68409 -0.01330 -1.02292  0.018598  0.001722 -0.000294    10.803
   1.75815  0.70109 -0.01119 -1.02230  0.019411  0.001733 -0.000291    11.202
   1.77520  0.71802 -0.00917 -1.02165  0.020068  0.001745 -0.000288    11.499
   1.79217  0.73488 -0.00723 -1.02095  0.020547  0.001759 -0.000285    11.679
   1.80907  0.75168 -0.00538 -1.02017  0.020817  0.001775 -0.000282    11.725
   1.82588  0.76841 -0.00365 -1.01929  0.020841  0.001794 -0.000279    11.615
   1.84259  0.78504 -0.00203 -1.01825  0.020534  0.001817 -0.000276    11.302
   1.85920  0.80157 -0.00054 -0.99235  0.020134  0.002451 -0.000209     8.214
   1.87568  0.81800  0.00080 -0.96123  0.019462  0.003272 -0.000168     5.948
   1.89204  0.83432  0.00198 -0.93225  0.018552  0.004083 -0.000111     4.544
   1.90829  0.85054  0.00299 -0.90524  0.017511  0.004879  0.000063     3.589
   1.92442  0.86665  0.00381 -0.88529  0.016388  0.005491  0.000296     2.985
   1.94041  0.88262  0.00443 -0.87108  0.015282  0.005937  0.000538     2.574
   1.95619  0.89840  0.00486 -0.86172  0.014236  0.006235  0.000844     2.283
   1.97170  0.91391  0.00506 -0.85637  0.013268  0.006410  0.001184     2.070
   1.98685  0.92905  0.00502 -0.85436  0.012372  0.006485  0.001538     1.908
   2.00150  0.94370  0.00473 -0.85528  0.011534  0.006475  0.001902     1.781
   2.01546  0.95766  0.00418 -0.85898  0.010735  0.006391  0.002277     1.680
   2.02853  0.97070  0.00337 -0.86568  0.009945  0.006235  0.002675     1.595
   2.04056  0.98268  0.00230 -0.87614  0.009126  0.005996  0.003122     1.522
   2.05143  0.99347  0.00100 -0.89186  0.008231  0.005659  0.003664     1.455
   2.05803  1.00000  0.00000 -0.88930  0.008286  0.005730  0.003684     1.446
   2.05803  1.00010 -0.00002  0.88930  0.036385  0.016384  0.000000     2.221
   2.06467  1.00659 -0.00142  0.89475  0.033191  0.015974  0.000000     2.078
   2.07243  1.01422 -0.00282  0.89693  0.031464  0.015818  0.000000     1.989
   2.08150  1.02317 -0.00430  0.89937  0.029786  0.015650  0.000000     1.903
   2.09210  1.03364 -0.00588  0.90226  0.028121  0.015457  0.000000     1.819
   2.10448  1.04591 -0.00761  0.90583  0.026445  0.015228  0.000000     1.737
   2.11896  1.06026 -0.00948  0.91022  0.024769  0.014958  0.000000     1.656
   2.13587  1.07705 -0.01151  0.91546  0.023122  0.014651  0.000000     1.578
   2.15564  1.09670 -0.01372  0.92149  0.021536  0.014314  0.000000     1.505
   2.17875  1.11968 -0.01613  0.92816  0.020046  0.013961  0.000000     1.436
   2.20575  1.14656 -0.01874  0.93523  0.018678  0.013605  0.000000     1.373
   2.23731  1.17799 -0.02157  0.94243  0.017449  0.013260  0.000000     1.316
   2.27420  1.21475 -0.02463  0.94950  0.016366  0.012938  0.000000     1.265
   2.31730  1.25773 -0.02794  0.95623  0.015426  0.012645  0.000000     1.220
   2.36768  1.30798 -0.03149  0.96248  0.014620  0.012385  0.000000     1.181
   2.42656  1.36674 -0.03530  0.96817  0.013937  0.012156  0.000000     1.147
   2.49537  1.43543 -0.03937  0.97327  0.013366  0.011957  0.000000     1.118
   2.57580  1.51573 -0.04370  0.97778  0.012893  0.011787  0.000000     1.094
   2.66978  1.60961 -0.04830  0.98171  0.012507  0.011642  0.000000     1.074
   2.77963  1.71935 -0.05314  0.98507  0.012195  0.011521  0.000000     1.059
   2.90801  1.84763 -0.05824  0.98792  0.011947  0.011420  0.000000     1.046
   3.05804  1.99757 -0.06357  0.99080  0.011732  0.011319  0.000000     1.036
