#    s        x        y     Ue/Vinf    Dstar     Theta      Cf       H
   0.00000  1.00000  0.00000  0.89365  0.029597  0.010820  0.000322     2.735
   0.00667  0.99364  0.00201  0.89986  0.027454  0.010473  0.000410     2.621
   0.01801  0.98283  0.00544  0.90923  0.025294  0.009986  0.000499     2.533
   0.03089  0.97055  0.00931  0.92066  0.023161  0.009436  0.000598     2.455
   0.04491  0.95712  0.01335  0.93345  0.021301  0.008872  0.000688     2.401
   0.05974  0.94286  0.01740  0.94686  0.019820  0.008328  0.000748     2.380
   0.07527  0.92786  0.02141  0.96053  0.018731  0.007814  0.000760     2.397
   0.09142  0.91220  0.02541  0.97467  0.017963  0.007318  0.000722     2.455
   0.10802  0.89609  0.02942  0.98973  0.017447  0.006824  0.000635     2.557
   0.12488  0.87971  0.03341  1.00628  0.017149  0.006315  0.000502     2.715
   0.14188  0.86318  0.03738  1.02517  0.017045  0.005769  0.000346     2.955
   0.15896  0.84656  0.04130  1.04763  0.017103  0.005159  0.000179     3.315
   0.17607  0.82989  0.04517  1.07550  0.017271  0.004454 -0.000013     3.878
   0.19318  0.81321  0.04899  1.10923  0.017477  0.003665 -0.000164     4.769
   0.21029  0.79652  0.05273  1.14508  0.017657  0.002894 -0.000224     6.101
   0.22743  0.77978  0.05643  1.18543  0.017668  0.002102 -0.000290     8.404
   0.24453  0.76308  0.06007  1.21202  0.017491  0.001631 -0.000368    10.723
   0.26151  0.74647  0.06361  1.21303  0.017178  0.001616 -0.000372    10.629
   0.27839  0.72994  0.06704  1.21391  0.016633  0.001604 -0.000376    10.372
   0.29522  0.71344  0.07036  1.21475  0.015934  0.001592 -0.000381    10.006
   0.31203  0.69694  0.07357  1.21558  0.015128  0.001582 -0.000386     9.563
   0.32881  0.68046  0.07667  1.21644  0.014245  0.001571 -0.000393     9.065
   0.34552  0.66401  0.07965  1.21738  0.013313  0.001560 -0.000400     8.531
   0.36216  0.64761  0.08250  1.21846  0.012360  0.001549 -0.000409     7.981
   0.37877  0.63123  0.08521  1.21972  0.011413  0.001536 -0.000420     7.432
   0.39539  0.61480  0.08779  1.22124  0.010483  0.001520 -0.000434     6.895
   0.41202  0.59836  0.09025  1.22308  0.009563  0.001503 -0.000453     6.361
   0.42857  0.58198  0.09257  1.22533  0.008673  0.001484 -0.000475     5.846
   0.44503  0.56566  0.09473  1.22810  0.007842  0.001461 -0.000490     5.367
   0.46148  0.54933  0.09674  1.23152  0.007087  0.001435 -0.000485     4.939
   0.47798  0.53293  0.09860  1.23565  0.006397  0.001405 -0.000431     4.552
   0.49446  0.51655  0.10033  1.24049  0.005751  0.001373 -0.000289     4.189
   0.51082  0.50026  0.10190  1.24596  0.005176  0.001338 -0.000040     3.870
   0.52710  0.48404  0.10328  1.25218  0.004695  0.001299  0.000290     3.613
   0.54339  0.46779  0.10449  1.25907  0.004294  0.001258  0.000669     3.412
   0.55971  0.45151  0.10554  1.26641  0.003950  0.001216  0.001088     3.250
   0.57600  0.43525  0.10643  1.27407  0.003641  0.001172  0.001565     3.108
   0.59218  0.41907  0.10713  1.28159  0.003382  0.001129  0.002043     2.997
   0.60829  0.40298  0.10765  1.28874  0.003160  0.001087  0.002516     2.908
   0.62434  0.38693  0.10796  1.29522  0.002980  0.001048  0.002937     2.844
   0.64042  0.37085  0.10808  1.30113  0.002823  0.001010  0.003329     2.794
   0.65651  0.35476  0.10800  1.30672  0.002675  0.000973  0.003747     2.748
   0.67249  0.33878  0.10774  1.31231  0.002515  0.000935  0.004308     2.689
   0.68825  0.32303  0.10727  1.31693  0.002371  0.000899  0.004883     2.636
   0.70393  0.30737  0.10654  1.31962  0.002268  0.000868  0.005263     2.612
   0.71975  0.29158  0.10557  1.32094  0.002194  0.000840  0.005447     2.612
   0.73559  0.27578  0.10439  1.32335  0.002084  0.000807  0.005942     2.582
   0.75115  0.26028  0.10302  1.32587  0.001950  0.000772  0.006781     2.525
   0.76650  0.24502  0.10139  1.32502  0.001858  0.000744  0.007313     2.499
   0.78192  0.22972  0.09944  1.32136  0.001809  0.000720  0.007394     2.511
   0.79744  0.21436  0.09725  1.31874  0.001736  0.000693  0.007741     2.505
   0.81279  0.19920  0.09484  1.31642  0.001638  0.000662  0.008468     2.473
   0.82793  0.18429  0.09217  1.31104  0.001569  0.000636  0.008873     2.466
   0.84302  0.16950  0.08922  1.30440  0.001507  0.000611  0.009165     2.468
   0.85806  0.15481  0.08599  1.29731  0.001445  0.000584  0.009448     2.475
   0.87291  0.14036  0.08253  1.29035  0.001370  0.000554  0.009953     2.471
   0.88737  0.12638  0.07886  1.28297  0.001273  0.000522  0.011022     2.437
   0.90140  0.11290  0.07496  1.27116  0.001195  0.000494  0.011841     2.420
   0.91519  0.09977  0.07076  1.25558  0.001157  0.000470  0.011573     2.462
   0.92848  0.08721  0.06643  1.24419  0.001075  0.000437  0.012369     2.459
   0.94079  0.07568  0.06209  1.23137  0.000958  0.000402  0.014831     2.384
   0.95221  0.06515  0.05767  1.20658  0.000899  0.000378  0.015585     2.377
   0.96284  0.05550  0.05322  1.18030  0.000866  0.000357  0.015049     2.428
   0.97241  0.04692  0.04898  1.16056  0.000794  0.000328  0.016203     2.424
   0.98081  0.03952  0.04501  1.13897  0.000722  0.000300  0.017771     2.408
   0.98816  0.03319  0.04127  1.11319  0.000653  0.000274  0.019738     2.380
   0.99463  0.02777  0.03774  1.08126  0.000598  0.000253  0.021267     2.365
   1.00034  0.02313  0.03441  1.04501  0.000550  0.000234  0.022548     2.355
   1.00542  0.01915  0.03125  1.00441  0.000503  0.000216  0.024206     2.333
   1.00996  0.01574  0.02825  0.95768  0.000466  0.000200  0.025024     2.327
   1.01405  0.01281  0.02541  0.90742  0.000431  0.000186  0.025770     2.322
   1.01775  0.01030  0.02269  0.85079  0.000394  0.000172  0.027197     2.292
   1.02112  0.00816  0.02007  0.78380  0.000369  0.000162  0.027138     2.278
   1.02423  0.00634  0.01756  0.71256  0.000349  0.000153  0.025764     2.289
   1.02710  0.00481  0.01513  0.63723  0.000321  0.000142  0.025581     2.266
   1.02975  0.00353  0.01281  0.55016  0.000303  0.000135  0.023874     2.244
   1.03221  0.00250  0.01057  0.45980  0.000293  0.000129  0.020237     2.266
   1.03452  0.00166  0.00842  0.36613  0.000271  0.000121  0.017837     2.242
   1.03670  0.00100  0.00634  0.26034  0.000262  0.000118  0.013274     2.227
   1.03878  0.00049  0.00433  0.15288  0.000254  0.000113  0.007912     2.246
   1.04077  0.00014  0.00237  0.03376  0.000222  0.000100  0.002027     2.230
   1.04268 -0.00001  0.00047 -0.10192  0.000222  0.000100  0.006123     2.230
   1.04452  0.00009 -0.00138 -0.26198  0.000192  0.000087  0.018538     2.206
   1.04638  0.00049 -0.00318 -0.42191  0.000206  0.000091  0.026386     2.268
   1.04830  0.00119 -0.00498 -0.55404  0.000225  0.000100  0.032131     2.255
   1.05035  0.00220 -0.00676 -0.67773  0.000238  0.000106  0.037076     2.256
   1.05254  0.00351 -0.00851 -0.77442  0.000271  0.000117  0.035240     2.313
   1.05487  0.00512 -0.01021 -0.85014  0.000300  0.000130  0.035145     2.309
   1.05738  0.00701 -0.01184 -0.90355  0.000348  0.000147  0.030425     2.369
   1.06008  0.00920 -0.01343 -0.93898  0.000398  0.000166  0.026882     2.397
   1.06301  0.01168 -0.01499 -0.96579  0.000447  0.000185  0.024290     2.410
   1.06622  0.01448 -0.01656 -0.98781  0.000496  0.000205  0.022185     2.419
   1.06978  0.01766 -0.01815 -1.00608  0.000548  0.000226  0.020186     2.431
   1.07377  0.02129 -0.01981 -1.02314  0.000597  0.000246  0.018898     2.429
   1.07825  0.02543 -0.02154 -1.04123  0.000640  0.000265  0.018196     2.415
   1.08332  0.03017 -0.02333 -1.05968  0.000686  0.000285  0.017373     2.409
   1.08907  0.03561 -0.02519 -1.07719  0.000738  0.000306  0.016310     2.415
   1.09564  0.04190 -0.02708 -1.09121  0.000808  0.000331  0.014709     2.441
   1.10320  0.04922 -0.02900 -1.10001  0.000898  0.000362  0.012759     2.484
   1.11196  0.05776 -0.03093 -1.10314  0.001012  0.000399  0.010738     2.536
   1.12207  0.06768 -0.03288 -1.10434  0.001121  0.000439  0.009499     2.555
   1.13350  0.07895 -0.03481 -1.10630  0.001217  0.000478  0.008859     2.545
   1.14613  0.09144 -0.03664 -1.10614  0.001340  0.000521  0.007840     2.569
   1.15994  0.10515 -0.03835 -1.10339  0.001482  0.000569  0.006781     2.605
   1.17469  0.11981 -0.03996 -1.10256  0.001581  0.000611  0.006496     2.586
   1.18993  0.13498 -0.04141 -1.10311  0.001667  0.000650  0.006312     2.565
   1.20552  0.15051 -0.04267 -1.10286  0.001773  0.000690  0.005888     2.571
   1.22143  0.16639 -0.04375 -1.10169  0.001889  0.000730  0.005423     2.587
   1.23764  0.18258 -0.04467 -1.10025  0.002000  0.000770  0.005055     2.598
   1.25400  0.19892 -0.04546 -1.09954  0.002087  0.000806  0.004875     2.591
   1.27036  0.21526 -0.04609 -1.09916  0.002169  0.000839  0.004726     2.585
   1.28677  0.23166 -0.04656 -1.09780  0.002275  0.000875  0.004426     2.599
   1.30335  0.24824 -0.04689 -1.09591  0.002386  0.000912  0.004127     2.617
   1.32002  0.26491 -0.04711 -1.09449  0.002476  0.000945  0.003962     2.619
   1.33663  0.28153 -0.04721 -1.09320  0.002561  0.000978  0.003824     2.620
   1.35321  0.29810 -0.04717 -1.09138  0.002662  0.001011  0.003622     2.632
   1.36986  0.31475 -0.04699 -1.08895  0.002778  0.001046  0.003373     2.654
   1.38656  0.33145 -0.04670 -1.08632  0.002892  0.001081  0.003153     2.675
   1.40323  0.34811 -0.04629 -1.08347  0.003010  0.001117  0.002944     2.696
   1.41985  0.36473 -0.04576 -1.08017  0.003142  0.001153  0.002710     2.726
   1.43647  0.38133 -0.04510 -1.07611  0.003304  0.001192  0.002422     2.772
   1.45309  0.39793 -0.04431 -1.07144  0.003494  0.001234  0.002105     2.832
   1.46972  0.41453 -0.04339 -1.06611  0.003723  0.001278  0.001754     2.912
   1.48633  0.43111 -0.04234 -1.06031  0.003996  0.001325  0.001386     3.016
   1.50291  0.44765 -0.04116 -1.05412  0.004339  0.001374  0.000991     3.158
   1.51945  0.46414 -0.03985 -1.04788  0.004771  0.001423  0.000589     3.351
   1.53596  0.48059 -0.03840 -1.04208  0.005312  0.001470  0.000214     3.612
   1.55247  0.49701 -0.03680 -1.03707  0.005999  0.001512 -0.000098     3.967
   1.56903  0.51348 -0.03504 -1.03289  0.006829  0.001549 -0.000291     4.408
   1.58574  0.53008 -0.03313 -1.02942  0.007804  0.001582 -0.000368     4.934
   1.60264  0.54687 -0.03109 -1.02673  0.008893  0.001609 -0.000372     5.528
   1.61973  0.56382 -0.02896 -1.02467  0.010057  0.001631 -0.000354     6.165
   1.63695  0.58089 -0.02675 -1.02309  0.011272  0.001650 -0.000336     6.831
   1.65426  0.59806 -0.02449 -1.02186  0.012507  0.001666 -0.000324     7.509
   1.67164  0.61529 -0.02221 -1.02086  0.013733  0.001679 -0.000314     8.180
   1.68905  0.63255 -0.01994 -1.02002  0.014915  0.001691 -0.000307     8.820
   1.70644  0.64979 -0.01769 -1.01928  0.016037  0.001702 -0.000302     9.421
   1.72377  0.66698 -0.01547 -1.01860  0.017085  0.001713 -0.000297     9.974
   1.74101  0.68409 -0.01330 -1.01795  0.018037  0.001724 -0.000293    10.463
   1.75815  0.70109 -0.01119 -1.01731  0.018867  0.001735 -0.000290    10.873
   1.77520  0.71802 -0.00917 -1.01664  0.019552  0.001748 -0.000287    11.187
   1.79217  0.73488 -0.00723 -1.01594  0.020076  0.001762 -0.000284    11.396
   1.80907  0.75168 -0.00538 -1.01517  0.020408  0.001777 -0.000281    11.482
   1.82588  0.76841 -0.00365 -1.01431  0.020522  0.001795 -0.000278    11.431
   1.84259  0.78504 -0.00203 -1.01332  0.020352  0.001816 -0.000275    11.204
   1.85920  0.80157 -0.00054 -1.00674  0.019893  0.001970 -0.000223    10.097
   1.87568  0.81800  0.00080 -0.97300  0.019349  0.002815 -0.000187     6.874
   1.89204  0.83432  0.00198 -0.94251  0.018477  0.003627 -0.000150     5.094
   1.90829  0.85054  0.00299 -0.91324  0.017430  0.004452 -0.000019     3.915
   1.92442  0.86665  0.00381 -0.89036  0.016270  0.005126  0.000216     3.174
   1.94041  0.88262  0.00443 -0.87400  0.015100  0.005620  0.000479     2.687
   1.95619  0.89840  0.00486 -0.86324  0.013983  0.005950  0.000770     2.350
   1.97170  0.91391  0.00506 -0.85712  0.012947  0.006142  0.001130     2.108
   1.98685  0.92905  0.00502 -0.85484  0.011994  0.006221  0.001512     1.928
   2.00150  0.94370  0.00473 -0.85588  0.011111  0.006209  0.001907     1.789
   2.01546  0.95766  0.00418 -0.86001  0.010279  0.006119  0.002316     1.680
   2.02853  0.97070  0.00337 -0.86742  0.009465  0.005953  0.002751     1.590
   2.04056  0.98268  0.00230 -0.87892  0.008630  0.005704  0.003240     1.513
   2.05143  0.99347  0.00100 -0.89631  0.007722  0.005352  0.003840     1.443
   2.05803  1.00000  0.00000 -0.89365  0.007777  0.005423  0.003859     1.434
   2.05803  1.00010 -0.00002  0.89365  0.037374  0.016243  0.000000     2.301
   2.06467  1.00659 -0.00142  0.89818  0.034152  0.015899  0.000000     2.148
   2.07243  1.01422 -0.00281  0.89980  0.032406  0.015782  0.000000     2.053
   2.08150  1.02317 -0.00429  0.90168  0.030701  0.015650  0.000000     1.962
   2.09210  1.03365 -0.00587  0.90403  0.028998  0.015492  0.000000     1.872
   2.10448  1.04591 -0.00758  0.90708  0.027272  0.015294  0.000000     1.783
   2.11896  1.06027 -0.00943  0.91097  0.025536  0.015051  0.000000     1.697
   2.13587  1.07706 -0.01145  0.91578  0.023819  0.014764  0.000000     1.613
   2.15564  1.09671 -0.01364  0.92147  0.022158  0.014441  0.000000     1.534
   2.17875  1.11970 -0.01601  0.92789  0.020591  0.014094  0.000000     1.461
   2.20575  1.14658 -0.01858  0.93481  0.019149  0.013740  0.000000     1.394
   2.23731  1.17801 -0.02136  0.94194  0.017852  0.013393  0.000000     1.333
   2.27420  1.21478 -0.02436  0.94900  0.016710  0.013067  0.000000     1.279
   2.31730  1.25776 -0.02757  0.95576  0.015720  0.012769  0.000000     1.231
   2.36768  1.30803 -0.03102  0.96206  0.014872  0.012502  0.000000     1.190
   2.42656  1.36679 -0.03469  0.96780  0.014155  0.012269  0.000000     1.154
   2.49537  1.43549 -0.03858  0.97295  0.013555  0.012066  0.000000     1.123
   2.57580  1.51581 -0.04270  0.97750  0.013060  0.011893  0.000000     1.098
   2.66978  1.60970 -0.04702  0.98146  0.012656  0.011745  0.000000     1.078
   2.77963  1.71945 -0.05153  0.98486  0.012331  0.011621  0.000000     1.061
   2.90801  1.84774 -0.05621  0.98774  0.012071  0.011518  0.000000     1.048
   3.05804  1.99770 -0.06104  0.99068  0.011847  0.011414  0.000000     1.038
