#    s        x        y     Ue/Vinf    Dstar     Theta      Cf       H
   0.00000  1.00000  0.00000  0.89206  0.028736  0.010584  0.000337     2.715
   0.00667  0.99364  0.00201  0.89858  0.026629  0.010230  0.000427     2.603
   0.01801  0.98283  0.00544  0.90833  0.024527  0.009735  0.000516     2.519
   0.03089  0.97055  0.00931  0.92017  0.022468  0.009182  0.000612     2.447
   0.04491  0.95712  0.01335  0.93332  0.020695  0.008618  0.000695     2.401
   0.05974  0.94286  0.01740  0.94708  0.019310  0.008076  0.000742     2.391
   0.07527  0.92786  0.02141  0.96110  0.018325  0.007563  0.000737     2.423
   0.09142  0.91220  0.02541  0.97574  0.017666  0.007064  0.000676     2.501
   0.10802  0.89609  0.02942  0.99161  0.017262  0.006557  0.000564     2.632
   0.12488  0.87971  0.03341  1.00948  0.017078  0.006022  0.000408     2.836
   0.14188  0.86318  0.03738  1.03049  0.017083  0.005431  0.000252     3.145
   0.15896  0.84656  0.04130  1.05613  0.017232  0.004757  0.000064     3.622
   0.17607  0.82989  0.04517  1.08893  0.017447  0.003958 -0.000120     4.408
   0.19318  0.81321  0.04899  1.12467  0.017665  0.003159 -0.000207     5.593
   0.21029  0.79652  0.05273  1.16434  0.017766  0.002347 -0.000261     7.568
   0.22743  0.77978  0.05643  1.20223  0.017643  0.001650 -0.000361    10.694
   0.24453  0.76308  0.06007  1.20329  0.017429  0.001634 -0.000365    10.670
   0.26151  0.74647  0.06361  1.20419  0.016934  0.001620 -0.000369    10.451
   0.27839  0.72994  0.06704  1.20502  0.016268  0.001609 -0.000374    10.111
   0.29522  0.71344  0.07036  1.20583  0.015485  0.001598 -0.000379     9.689
   0.31203  0.69694  0.07357  1.20667  0.014620  0.001588 -0.000384     9.208
   0.32881  0.68046  0.07667  1.20758  0.013699  0.001577 -0.000391     8.687
   0.34552  0.66401  0.07965  1.20859  0.012743  0.001566 -0.000400     8.140
   0.36216  0.64761  0.08250  1.20976  0.011780  0.001553 -0.000410     7.586
   0.37877  0.63123  0.08521  1.21117  0.010835  0.001539 -0.000423     7.042
   0.39539  0.61480  0.08779  1.21288  0.009916  0.001522 -0.000440     6.515
   0.41202  0.59836  0.09025  1.21497  0.009019  0.001503 -0.000460     6.000
   0.42857  0.58198  0.09257  1.21753  0.008159  0.001481 -0.000479     5.508
   0.44503  0.56566  0.09473  1.22068  0.007363  0.001456 -0.000481     5.056
   0.46148  0.54933  0.09674  1.22452  0.006652  0.001428 -0.000445     4.658
   0.47798  0.53293  0.09860  1.22908  0.006005  0.001396 -0.000340     4.301
   0.49446  0.51655  0.10033  1.23426  0.005409  0.001362 -0.000134     3.972
   0.51082  0.50026  0.10190  1.24016  0.004882  0.001324  0.000178     3.686
   0.52710  0.48404  0.10328  1.24678  0.004444  0.001284  0.000553     3.462
   0.54339  0.46779  0.10449  1.25384  0.004090  0.001242  0.000944     3.294
   0.55971  0.45151  0.10554  1.26121  0.003779  0.001198  0.001373     3.153
   0.57600  0.43525  0.10643  1.26869  0.003503  0.001155  0.001840     3.033
   0.59218  0.41907  0.10713  1.27587  0.003269  0.001113  0.002303     2.938
   0.60829  0.40298  0.10765  1.28264  0.003065  0.001072  0.002766     2.859
   0.62434  0.38693  0.10796  1.28865  0.002898  0.001034  0.003170     2.804
   0.64042  0.37085  0.10808  1.29408  0.002752  0.000997  0.003552     2.760
   0.65651  0.35476  0.10800  1.29904  0.002618  0.000961  0.003932     2.722
   0.67249  0.33878  0.10774  1.30418  0.002465  0.000924  0.004483     2.667
   0.68825  0.32303  0.10727  1.30845  0.002322  0.000888  0.005083     2.614
   0.70393  0.30737  0.10654  1.31046  0.002226  0.000858  0.005439     2.594
   0.71975  0.29158  0.10557  1.31117  0.002156  0.000831  0.005602     2.596
   0.73559  0.27578  0.10439  1.31301  0.002051  0.000799  0.006084     2.568
   0.75115  0.26028  0.10302  1.31494  0.001921  0.000764  0.006908     2.514
   0.76650  0.24502  0.10139  1.31365  0.001828  0.000735  0.007476     2.485
   0.78192  0.22972  0.09944  1.30914  0.001783  0.000713  0.007514     2.501
   0.79744  0.21436  0.09725  1.30595  0.001710  0.000686  0.007878     2.493
   0.81279  0.19920  0.09484  1.30274  0.001618  0.000656  0.008554     2.466
   0.82793  0.18429  0.09217  1.29685  0.001546  0.000630  0.009004     2.455
   0.84302  0.16950  0.08922  1.28929  0.001486  0.000605  0.009277     2.459
   0.85806  0.15481  0.08599  1.28134  0.001424  0.000578  0.009579     2.464
   0.87291  0.14036  0.08253  1.27326  0.001352  0.000549  0.010035     2.462
   0.88737  0.12638  0.07886  1.26494  0.001256  0.000517  0.011120     2.428
   0.90140  0.11290  0.07496  1.25187  0.001180  0.000489  0.011912     2.411
   0.91519  0.09977  0.07076  1.23509  0.001141  0.000465  0.011642     2.453
   0.92848  0.08721  0.06643  1.22241  0.001061  0.000433  0.012437     2.450
   0.94079  0.07568  0.06209  1.20794  0.000945  0.000398  0.014872     2.375
   0.95221  0.06515  0.05767  1.18124  0.000887  0.000375  0.015622     2.367
   0.96284  0.05550  0.05322  1.15292  0.000855  0.000354  0.015029     2.418
   0.97241  0.04692  0.04898  1.13136  0.000785  0.000325  0.016077     2.417
   0.98081  0.03952  0.04501  1.10803  0.000710  0.000297  0.017804     2.395
   0.98816  0.03319  0.04127  1.07942  0.000646  0.000272  0.019463     2.374
   0.99463  0.02777  0.03774  1.04562  0.000591  0.000250  0.020946     2.358
   1.00034  0.02313  0.03441  1.00681  0.000541  0.000231  0.022401     2.340
   1.00542  0.01915  0.03125  0.96306  0.000501  0.000214  0.023223     2.336
   1.00996  0.01574  0.02825  0.91520  0.000459  0.000198  0.024658     2.313
   1.01405  0.01281  0.02541  0.86129  0.000429  0.000185  0.024640     2.321
   1.01775  0.01030  0.02269  0.80248  0.000389  0.000171  0.026285     2.280
   1.02112  0.00816  0.02007  0.73347  0.000368  0.000161  0.025078     2.292
   1.02423  0.00634  0.01756  0.66045  0.000339  0.000150  0.025174     2.264
   1.02710  0.00481  0.01513  0.57749  0.000322  0.000143  0.023310     2.258
   1.02975  0.00353  0.01281  0.49230  0.000305  0.000134  0.020770     2.269
   1.03221  0.00250  0.01057  0.39878  0.000283  0.000127  0.018876     2.223
   1.03452  0.00166  0.00842  0.29949  0.000283  0.000125  0.013829     2.253
   1.03670  0.00100  0.00634  0.20117  0.000257  0.000114  0.010266     2.247
   1.03878  0.00049  0.00433  0.08450  0.000236  0.000106  0.004771     2.230
   1.04077  0.00014  0.00237 -0.04102  0.000236  0.000106  0.002320     2.230
   1.04268 -0.00001  0.00047 -0.17997  0.000211  0.000095  0.011503     2.218
   1.04452  0.00009 -0.00138 -0.34202  0.000197  0.000089  0.023355     2.221
   1.04638  0.00049 -0.00318 -0.50064  0.000204  0.000091  0.032118     2.249
   1.04830  0.00119 -0.00498 -0.63248  0.000226  0.000099  0.035908     2.274
   1.05035  0.00220 -0.00676 -0.75228  0.000239  0.000106  0.041045     2.256
   1.05254  0.00351 -0.00851 -0.84394  0.000275  0.000118  0.037353     2.328
   1.05487  0.00512 -0.01021 -0.91431  0.000304  0.000131  0.036954     2.318
   1.05738  0.00701 -0.01184 -0.96274  0.000354  0.000148  0.031429     2.383
   1.06008  0.00920 -0.01343 -0.99302  0.000407  0.000168  0.027241     2.417
   1.06301  0.01168 -0.01499 -1.01658  0.000454  0.000188  0.024864     2.421
   1.06622  0.01448 -0.01656 -1.03499  0.000507  0.000208  0.022280     2.439
   1.06978  0.01766 -0.01815 -1.04960  0.000561  0.000229  0.020105     2.453
   1.07377  0.02129 -0.01981 -1.06310  0.000613  0.000250  0.018684     2.452
   1.07825  0.02543 -0.02154 -1.07860  0.000654  0.000269  0.018157     2.430
   1.08332  0.03017 -0.02333 -1.09437  0.000702  0.000289  0.017240     2.426
   1.08907  0.03561 -0.02519 -1.10970  0.000754  0.000310  0.016250     2.428
   1.09564  0.04190 -0.02708 -1.12143  0.000825  0.000336  0.014561     2.457
   1.10320  0.04922 -0.02900 -1.12776  0.000920  0.000367  0.012504     2.503
   1.11196  0.05776 -0.03093 -1.12926  0.001033  0.000405  0.010588     2.551
   1.12207  0.06768 -0.03288 -1.12795  0.001153  0.000446  0.009137     2.584
   1.13350  0.07895 -0.03481 -1.12815  0.001247  0.000486  0.008607     2.567
   1.14613  0.09144 -0.03664 -1.12614  0.001374  0.000530  0.007560     2.594
   1.15994  0.10515 -0.03835 -1.12186  0.001521  0.000578  0.006522     2.631
   1.17469  0.11981 -0.03996 -1.12004  0.001616  0.000620  0.006316     2.605
   1.18993  0.13498 -0.04141 -1.11892  0.001713  0.000661  0.006032     2.593
   1.20552  0.15051 -0.04267 -1.11771  0.001817  0.000700  0.005681     2.594
   1.22143  0.16639 -0.04375 -1.11555  0.001936  0.000742  0.005216     2.611
   1.23764  0.18258 -0.04467 -1.11318  0.002051  0.000782  0.004848     2.623
   1.25400  0.19892 -0.04546 -1.11184  0.002137  0.000818  0.004701     2.613
   1.27036  0.21526 -0.04609 -1.11056  0.002226  0.000853  0.004524     2.610
   1.28677  0.23166 -0.04656 -1.10871  0.002329  0.000889  0.004262     2.620
   1.30335  0.24824 -0.04689 -1.10615  0.002447  0.000926  0.003948     2.642
   1.32002  0.26491 -0.04711 -1.10425  0.002537  0.000960  0.003800     2.642
   1.33663  0.28153 -0.04721 -1.10227  0.002630  0.000994  0.003639     2.647
   1.35321  0.29810 -0.04717 -1.09995  0.002734  0.001028  0.003441     2.659
   1.36986  0.31475 -0.04699 -1.09700  0.002855  0.001064  0.003192     2.684
   1.38656  0.33145 -0.04670 -1.09392  0.002975  0.001100  0.002974     2.705
   1.40323  0.34811 -0.04629 -1.09051  0.003104  0.001136  0.002747     2.732
   1.41985  0.36473 -0.04576 -1.08674  0.003245  0.001173  0.002511     2.765
   1.43647  0.38133 -0.04510 -1.08218  0.003423  0.001214  0.002207     2.819
   1.45309  0.39793 -0.04431 -1.07708  0.003630  0.001257  0.001883     2.888
   1.46972  0.41453 -0.04339 -1.07142  0.003881  0.001302  0.001528     2.980
   1.48633  0.43111 -0.04234 -1.06537  0.004186  0.001350  0.001153     3.100
   1.50291  0.44765 -0.04116 -1.05913  0.004566  0.001399  0.000763     3.264
   1.51945  0.46414 -0.03985 -1.05309  0.005042  0.001447  0.000381     3.485
   1.53596  0.48059 -0.03840 -1.04768  0.005641  0.001491  0.000041     3.784
   1.55247  0.49701 -0.03680 -1.04313  0.006376  0.001529 -0.000209     4.169
   1.56903  0.51348 -0.03504 -1.03926  0.007260  0.001564 -0.000342     4.642
   1.58574  0.53008 -0.03313 -1.03618  0.008285  0.001594 -0.000378     5.199
   1.60264  0.54687 -0.03109 -1.03382  0.009419  0.001618 -0.000368     5.821
   1.61973  0.56382 -0.02896 -1.03202  0.010622  0.001638 -0.000348     6.483
   1.63695  0.58089 -0.02675 -1.03065  0.011869  0.001655 -0.000333     7.172
   1.65426  0.59806 -0.02449 -1.02957  0.013130  0.001669 -0.000322     7.868
   1.67164  0.61529 -0.02221 -1.02869  0.014370  0.001681 -0.000314     8.549
   1.68905  0.63255 -0.01994 -1.02794  0.015560  0.001692 -0.000307     9.197
   1.70644  0.64979 -0.01769 -1.02726  0.016678  0.001702 -0.000302     9.798
   1.72377  0.66698 -0.01547 -1.02663  0.017712  0.001712 -0.000298    10.344
   1.74101  0.68409 -0.01330 -1.02601  0.018637  0.001723 -0.000295    10.817
   1.75815  0.70109 -0.01119 -1.02539  0.019427  0.001734 -0.000291    11.202
   1.77520  0.71802 -0.00917 -1.02472  0.020057  0.001747 -0.000288    11.482
   1.79217  0.73488 -0.00723 -1.02401  0.020503  0.001761 -0.000285    11.642
   1.80907  0.75168 -0.00538 -1.02321  0.020733  0.001778 -0.000282    11.662
   1.82588  0.76841 -0.00365 -1.02229  0.020704  0.001797 -0.000280    11.520
   1.84259  0.78504 -0.00203 -1.02121  0.020325  0.001821 -0.000277    11.163
   1.85920  0.80157 -0.00054 -0.98820  0.019912  0.002637 -0.000197     7.551
   1.87568  0.81800  0.00080 -0.95637  0.019166  0.003484 -0.000160     5.502
   1.89204  0.83432  0.00198 -0.92659  0.018215  0.004326 -0.000072     4.210
   1.90829  0.85054  0.00299 -0.90080  0.017146  0.005094  0.000136     3.366
   1.92442  0.86665  0.00381 -0.88222  0.016024  0.005667  0.000380     2.827
   1.94041  0.88262  0.00443 -0.86932  0.014940  0.006074  0.000639     2.460
   1.95619  0.89840  0.00486 -0.86109  0.013930  0.006338  0.000967     2.198
   1.97170  0.91391  0.00506 -0.85662  0.013002  0.006487  0.001314     2.005
   1.98685  0.92905  0.00502 -0.85529  0.012148  0.006542  0.001670     1.857
   2.00150  0.94370  0.00473 -0.85673  0.011350  0.006519  0.002033     1.741
   2.01546  0.95766  0.00418 -0.86084  0.010584  0.006425  0.002406     1.647
   2.02853  0.97070  0.00337 -0.86791  0.009822  0.006261  0.002802     1.569
   2.04056  0.98268  0.00230 -0.87873  0.009025  0.006016  0.003248     1.500
   2.05143  0.99347  0.00100 -0.89494  0.008146  0.005670  0.003793     1.437
   2.05803  1.00000  0.00000 -0.89206  0.008218  0.005749  0.003801     1.429
   2.05803  1.00010 -0.00002  0.89206  0.036954  0.016333  0.000000     2.262
   2.06467  1.00659 -0.00142  0.89700  0.033741  0.015960  0.000000     2.114
   2.07243  1.01422 -0.00282  0.89885  0.032004  0.015827  0.000000     2.022
   2.08150  1.02316 -0.00430  0.90097  0.030311  0.015679  0.000000     1.933
   2.09210  1.03364 -0.00589  0.90354  0.028625  0.015507  0.000000     1.846
   2.10448  1.04591 -0.00761  0.90680  0.026921  0.015295  0.000000     1.760
   2.11896  1.06026 -0.00949  0.91090  0.025212  0.015041  0.000000     1.676
   2.13587  1.07705 -0.01153  0.91589  0.023526  0.014746  0.000000     1.595
   2.15564  1.09670 -0.01375  0.92172  0.021898  0.014417  0.000000     1.519
   2.17875  1.11968 -0.01617  0.92824  0.020365  0.014067  0.000000     1.448
   2.20575  1.14655 -0.01879  0.93522  0.018956  0.013712  0.000000     1.383
   2.23731  1.17798 -0.02164  0.94238  0.017691  0.013366  0.000000     1.324
   2.27420  1.21474 -0.02473  0.94944  0.016576  0.013041  0.000000     1.271
   2.31730  1.25772 -0.02806  0.95617  0.015608  0.012745  0.000000     1.225
   2.36768  1.30797 -0.03165  0.96244  0.014780  0.012481  0.000000     1.184
   2.42656  1.36672 -0.03551  0.96815  0.014079  0.012250  0.000000     1.149
   2.49537  1.43541 -0.03963  0.97327  0.013493  0.012049  0.000000     1.120
   2.57580  1.51571 -0.04404  0.97779  0.013009  0.011877  0.000000     1.095
   2.66978  1.60958 -0.04872  0.98172  0.012615  0.011731  0.000000     1.075
   2.77963  1.71931 -0.05368  0.98509  0.012296  0.011608  0.000000     1.059
   2.90801  1.84759 -0.05891  0.98794  0.012043  0.011506  0.000000     1.047
   3.05804  1.99752 -0.06441  0.99084  0.011824  0.011404  0.000000     1.037
