#    s        x        y     Ue/Vinf    Dstar     Theta      Cf       H
   0.00000  1.00000  0.00000  0.88976  0.029820  0.012918  0.000654     2.308
   0.00667  0.99364  0.00201  0.89775  0.027489  0.012433  0.000796     2.211
   0.01801  0.98283  0.00544  0.90887  0.024986  0.011806  0.000973     2.116
   0.03089  0.97055  0.00931  0.92263  0.022459  0.011098  0.001193     2.024
   0.04491  0.95712  0.01335  0.93803  0.020173  0.010379  0.001437     1.944
   0.05974  0.94286  0.01740  0.95406  0.018234  0.009701  0.001684     1.880
   0.07527  0.92786  0.02141  0.96985  0.016660  0.009092  0.001915     1.832
   0.09142  0.91220  0.02541  0.98536  0.015358  0.008542  0.002127     1.798
   0.10802  0.89609  0.02942  1.00065  0.014258  0.008040  0.002320     1.773
   0.12488  0.87971  0.03341  1.01573  0.013318  0.007580  0.002494     1.757
   0.14188  0.86318  0.03738  1.03050  0.012517  0.007160  0.002643     1.748
   0.15896  0.84656  0.04130  1.04499  0.011832  0.006775  0.002763     1.747
   0.17607  0.82989  0.04517  1.05913  0.011257  0.006421  0.002846     1.753
   0.19318  0.81321  0.04899  1.07298  0.010777  0.006094  0.002885     1.769
   0.21029  0.79652  0.05273  1.08654  0.010393  0.005790  0.002870     1.795
   0.22743  0.77978  0.05643  1.09997  0.010100  0.005505  0.002791     1.835
   0.24453  0.76308  0.06007  1.11377  0.009881  0.005228  0.002645     1.890
   0.26151  0.74647  0.06361  1.12785  0.009767  0.004960  0.002412     1.969
   0.27839  0.72994  0.06704  1.14256  0.009784  0.004694  0.002074     2.085
   0.29522  0.71344  0.07036  1.15895  0.009946  0.004412  0.001634     2.255
   0.31203  0.69694  0.07357  1.17876  0.010265  0.004088  0.001162     2.511
   0.32881  0.68046  0.07667  1.20449  0.010726  0.003687  0.000692     2.909
   0.34552  0.66401  0.07965  1.23893  0.011291  0.003180  0.000158     3.551
   0.36216  0.64761  0.08250  1.28512  0.011866  0.002544 -0.000263     4.665
   0.37877  0.63123  0.08521  1.33580  0.012321  0.001899 -0.000389     6.488
   0.39539  0.61480  0.08779  1.36900  0.012563  0.001511 -0.000467     8.312
   0.41202  0.59836  0.09025  1.37095  0.012563  0.001491 -0.000472     8.425
   0.42857  0.58198  0.09257  1.37269  0.012311  0.001474 -0.000479     8.353
   0.44503  0.56566  0.09473  1.37434  0.011901  0.001458 -0.000488     8.163
   0.46148  0.54933  0.09674  1.37602  0.011397  0.001442 -0.000497     7.902
   0.47798  0.53293  0.09860  1.37777  0.010805  0.001427 -0.000508     7.574
   0.49446  0.51655  0.10033  1.37963  0.010135  0.001411 -0.000522     7.183
   0.51082  0.50026  0.10190  1.38169  0.009429  0.001394 -0.000539     6.762
   0.52710  0.48404  0.10328  1.38406  0.008728  0.001376 -0.000560     6.340
   0.54339  0.46779  0.10449  1.38684  0.008044  0.001357 -0.000585     5.930
   0.55971  0.45151  0.10554  1.39012  0.007362  0.001335 -0.000607     5.516
   0.57600  0.43525  0.10643  1.39400  0.006691  0.001310 -0.000614     5.107
   0.59218  0.41907  0.10713  1.39861  0.006062  0.001283 -0.000581     4.724
   0.60829  0.40298  0.10765  1.40402  0.005486  0.001253 -0.000474     4.377
   0.62434  0.38693  0.10796  1.41018  0.004975  0.001221 -0.000272     4.074
   0.64042  0.37085  0.10808  1.41711  0.004518  0.001187  0.000035     3.808
   0.65651  0.35476  0.10800  1.42493  0.004111  0.001149  0.000445     3.578
   0.67249  0.33878  0.10774  1.43365  0.003730  0.001109  0.001000     3.364
   0.68825  0.32303  0.10727  1.44284  0.003405  0.001067  0.001625     3.191
   0.70393  0.30737  0.10654  1.45170  0.003164  0.001027  0.002156     3.080
   0.71975  0.29158  0.10557  1.46010  0.002979  0.000989  0.002580     3.012
   0.73559  0.27578  0.10439  1.46910  0.002773  0.000949  0.003198     2.923
   0.75115  0.26028  0.10302  1.47831  0.002560  0.000908  0.004032     2.820
   0.76650  0.24502  0.10139  1.48540  0.002414  0.000872  0.004600     2.768
   0.78192  0.22972  0.09944  1.49070  0.002322  0.000841  0.004844     2.761
   0.79744  0.21436  0.09725  1.49665  0.002215  0.000808  0.005231     2.741
   0.81279  0.19920  0.09484  1.50330  0.002083  0.000773  0.005910     2.696
   0.82793  0.18429  0.09217  1.50817  0.001985  0.000741  0.006343     2.680
   0.84302  0.16950  0.08922  1.51230  0.001905  0.000710  0.006606     2.683
   0.85806  0.15481  0.08599  1.51695  0.001819  0.000678  0.006927     2.684
   0.87291  0.14036  0.08253  1.52236  0.001722  0.000644  0.007422     2.676
   0.88737  0.12638  0.07886  1.52881  0.001597  0.000607  0.008472     2.632
   0.90140  0.11290  0.07496  1.53258  0.001503  0.000574  0.009134     2.621
   0.91519  0.09977  0.07076  1.53460  0.001451  0.000544  0.008948     2.669
   0.92848  0.08721  0.06643  1.54154  0.001338  0.000506  0.010030     2.645
   0.94079  0.07568  0.06209  1.54888  0.001192  0.000466  0.012542     2.555
   0.95221  0.06515  0.05767  1.54718  0.001131  0.000438  0.012847     2.580
   0.96284  0.05550  0.05322  1.54689  0.001092  0.000411  0.012180     2.656
   0.97241  0.04692  0.04898  1.55420  0.000999  0.000377  0.013435     2.652
   0.98081  0.03952  0.04501  1.56199  0.000894  0.000343  0.015918     2.606
   0.98816  0.03319  0.04127  1.56596  0.000803  0.000313  0.018634     2.564
   0.99463  0.02777  0.03774  1.56558  0.000728  0.000287  0.021262     2.533
   1.00034  0.02313  0.03441  1.56155  0.000661  0.000264  0.024166     2.502
   1.00542  0.01915  0.03125  1.55318  0.000603  0.000243  0.027101     2.476
   1.00996  0.01574  0.02825  1.54054  0.000553  0.000225  0.029853     2.458
   1.01405  0.01281  0.02541  1.52422  0.000503  0.000208  0.033544     2.425
   1.01775  0.01030  0.02269  1.50113  0.000462  0.000193  0.036885     2.400
   1.02112  0.00816  0.02007  1.47153  0.000424  0.000179  0.040633     2.369
   1.02423  0.00634  0.01756  1.43381  0.000396  0.000168  0.042821     2.358
   1.02710  0.00481  0.01513  1.39058  0.000365  0.000157  0.046897     2.318
   1.02975  0.00353  0.01281  1.33657  0.000347  0.000150  0.047649     2.313
   1.03221  0.00250  0.01057  1.27843  0.000326  0.000143  0.049944     2.282
   1.03452  0.00166  0.00842  1.21353  0.000319  0.000138  0.047324     2.308
   1.03670  0.00100  0.00634  1.15206  0.000301  0.000131  0.048093     2.297
   1.03878  0.00049  0.00433  1.08874  0.000291  0.000124  0.044486     2.354
   1.04077  0.00014  0.00237  1.03013  0.000260  0.000111  0.047648     2.343
   1.04268 -0.00001  0.00047  0.95112  0.000227  0.000098  0.052096     2.306
   1.04452  0.00009 -0.00138  0.83189  0.000203  0.000090  0.054227     2.241
   1.04638  0.00049 -0.00318  0.67472  0.000198  0.000088  0.045086     2.239
   1.04830  0.00119 -0.00498  0.49769  0.000199  0.000091  0.034381     2.193
   1.05035  0.00220 -0.00676  0.32409  0.000221  0.000099  0.019444     2.237
   1.05254  0.00351 -0.00851  0.16727  0.000224  0.000101  0.010044     2.218
   1.05487  0.00512 -0.01021  0.02492  0.000270  0.000121  0.001230     2.230
   1.05738  0.00701 -0.01184 -0.09559  0.000270  0.000121  0.004717     2.230
   1.06008  0.00920 -0.01343 -0.19807  0.000320  0.000141  0.007958     2.271
   1.06301  0.01168 -0.01499 -0.28137  0.000352  0.000157  0.010510     2.245
   1.06622  0.01448 -0.01656 -0.35430  0.000392  0.000172  0.011549     2.277
   1.06978  0.01766 -0.01815 -0.41823  0.000428  0.000188  0.012509     2.274
   1.07377  0.02129 -0.01981 -0.47676  0.000468  0.000205  0.012894     2.286
   1.07825  0.02543 -0.02154 -0.53153  0.000506  0.000221  0.013295     2.286
   1.08332  0.03017 -0.02333 -0.58437  0.000544  0.000238  0.013568     2.289
   1.08907  0.03561 -0.02519 -0.63250  0.000594  0.000257  0.013179     2.310
   1.09564  0.04190 -0.02708 -0.67708  0.000645  0.000279  0.012934     2.315
   1.10320  0.04922 -0.02900 -0.71560  0.000717  0.000306  0.011963     2.344
   1.11196  0.05776 -0.03093 -0.74771  0.000800  0.000338  0.010969     2.366
   1.12207  0.06768 -0.03288 -0.77678  0.000880  0.000372  0.010327     2.369
   1.13350  0.07895 -0.03481 -0.80411  0.000959  0.000405  0.009811     2.369
   1.14613  0.09144 -0.03664 -0.82742  0.001053  0.000441  0.009040     2.386
   1.15994  0.10515 -0.03835 -0.84474  0.001169  0.000484  0.008049     2.418
   1.17469  0.11981 -0.03996 -0.86270  0.001239  0.000518  0.007964     2.392
   1.18993  0.13498 -0.04141 -0.87921  0.001320  0.000552  0.007614     2.393
   1.20552  0.15051 -0.04267 -0.89304  0.001409  0.000586  0.007169     2.404
   1.22143  0.16639 -0.04375 -0.90440  0.001500  0.000621  0.006728     2.417
   1.23764  0.18258 -0.04467 -0.91394  0.001590  0.000655  0.006352     2.426
   1.25400  0.19892 -0.04546 -0.92315  0.001662  0.000686  0.006168     2.422
   1.27036  0.21526 -0.04609 -0.93236  0.001722  0.000714  0.006075     2.412
   1.28677  0.23166 -0.04656 -0.93906  0.001814  0.000746  0.005688     2.432
   1.30335  0.24824 -0.04689 -0.94478  0.001899  0.000777  0.005402     2.444
   1.32002  0.26491 -0.04711 -0.95075  0.001962  0.000805  0.005291     2.438
   1.33663  0.28153 -0.04721 -0.95630  0.002026  0.000831  0.005162     2.437
   1.35321  0.29810 -0.04717 -0.96103  0.002097  0.000858  0.004982     2.443
   1.36986  0.31475 -0.04699 -0.96461  0.002181  0.000888  0.004734     2.458
   1.38656  0.33145 -0.04670 -0.96805  0.002253  0.000915  0.004576     2.462
   1.40323  0.34811 -0.04629 -0.97115  0.002322  0.000942  0.004434     2.467
   1.41985  0.36473 -0.04576 -0.97363  0.002399  0.000969  0.004264     2.475
   1.43647  0.38133 -0.04510 -0.97524  0.002486  0.000998  0.004052     2.491
   1.45309  0.39793 -0.04431 -0.97628  0.002577  0.001028  0.003846     2.508
   1.46972  0.41453 -0.04339 -0.97657  0.002677  0.001059  0.003619     2.529
   1.48633  0.43111 -0.04234 -0.97619  0.002785  0.001091  0.003388     2.553
   1.50291  0.44765 -0.04116 -0.97496  0.002910  0.001126  0.003126     2.584
   1.51945  0.46414 -0.03985 -0.97288  0.003053  0.001163  0.002840     2.624
   1.53596  0.48059 -0.03840 -0.96970  0.003229  0.001204  0.002502     2.681
   1.55247  0.49701 -0.03680 -0.96531  0.003455  0.001251  0.002103     2.762
   1.56903  0.51348 -0.03504 -0.95981  0.003747  0.001303  0.001654     2.876
   1.58574  0.53008 -0.03313 -0.95360  0.004111  0.001359  0.001192     3.026
   1.60264  0.54687 -0.03109 -0.94727  0.004545  0.001415  0.000765     3.212
   1.61973  0.56382 -0.02896 -0.94128  0.005036  0.001469  0.000407     3.428
   1.63695  0.58089 -0.02675 -0.93589  0.005583  0.001519  0.000126     3.675
   1.65426  0.59806 -0.02449 -0.93116  0.006185  0.001565 -0.000077     3.952
   1.67164  0.61529 -0.02221 -0.92700  0.006820  0.001607 -0.000204     4.245
   1.68905  0.63255 -0.01994 -0.92328  0.007476  0.001646 -0.000273     4.541
   1.70644  0.64979 -0.01769 -0.92001  0.008143  0.001683 -0.000303     4.839
   1.72377  0.66698 -0.01547 -0.91717  0.008820  0.001716 -0.000309     5.140
   1.74101  0.68409 -0.01330 -0.91469  0.009490  0.001747 -0.000305     5.432
   1.75815  0.70109 -0.01119 -0.91251  0.010143  0.001776 -0.000298     5.712
   1.77520  0.71802 -0.00917 -0.91055  0.010762  0.001803 -0.000288     5.969
   1.79217  0.73488 -0.00723 -0.90877  0.011339  0.001829 -0.000279     6.200
   1.80907  0.75168 -0.00538 -0.90712  0.011863  0.001854 -0.000272     6.399
   1.82588  0.76841 -0.00365 -0.90557  0.012334  0.001878 -0.000265     6.567
   1.84259  0.78504 -0.00203 -0.90409  0.012728  0.001902 -0.000260     6.691
   1.85920  0.80157 -0.00054 -0.90265  0.013045  0.001926 -0.000255     6.773
   1.87568  0.81800  0.00080 -0.90123  0.013265  0.001950 -0.000251     6.801
   1.89204  0.83432  0.00198 -0.89981  0.013380  0.001975 -0.000248     6.774
   1.90829  0.85054  0.00299 -0.89836  0.013377  0.002001 -0.000245     6.686
   1.92442  0.86665  0.00381 -0.89686  0.013248  0.002027 -0.000244     6.536
   1.94041  0.88262  0.00443 -0.89531  0.012993  0.002054 -0.000243     6.324
   1.95619  0.89840  0.00486 -0.89370  0.012607  0.002083 -0.000244     6.054
   1.97170  0.91391  0.00506 -0.89201  0.012082  0.002111 -0.000245     5.722
   1.98685  0.92905  0.00502 -0.89025  0.011411  0.002141 -0.000242     5.330
   2.00150  0.94370  0.00473 -0.88846  0.010598  0.002169 -0.000229     4.885
   2.01546  0.95766  0.00418 -0.88674  0.009658  0.002196 -0.000175     4.399
   2.02853  0.97070  0.00337 -0.88524  0.008615  0.002218 -0.000024     3.885
   2.04056  0.98268  0.00230 -0.88509  0.007485  0.002221  0.000302     3.370
   2.05143  0.99347  0.00100 -0.88890  0.006307  0.002176  0.000881     2.898
   2.05803  1.00000  0.00000 -0.88976  0.006138  0.002170  0.000999     2.829
   2.05803  1.00010 -0.00002  0.88976  0.035957  0.015088  0.000000     2.383
   2.06467  1.00659 -0.00141  0.89469  0.032859  0.014733  0.000000     2.230
   2.07243  1.01423 -0.00275  0.89712  0.031171  0.014567  0.000000     2.140
   2.08150  1.02319 -0.00414  0.89979  0.029549  0.014391  0.000000     2.053
   2.09210  1.03369 -0.00561  0.90283  0.027954  0.014198  0.000000     1.969
   2.10448  1.04598 -0.00715  0.90640  0.026358  0.013980  0.000000     1.885
   2.11896  1.06036 -0.00878  0.91059  0.024767  0.013734  0.000000     1.803
   2.13587  1.07719 -0.01049  0.91545  0.023199  0.013462  0.000000     1.723
   2.15564  1.09688 -0.01228  0.92092  0.021678  0.013169  0.000000     1.646
   2.17875  1.11991 -0.01413  0.92692  0.020232  0.012865  0.000000     1.573
   2.20575  1.14685 -0.01603  0.93326  0.018882  0.012558  0.000000     1.504
   2.23731  1.17835 -0.01794  0.93976  0.017645  0.012259  0.000000     1.439
   2.27420  1.21518 -0.01983  0.94622  0.016530  0.011976  0.000000     1.380
   2.31730  1.25825 -0.02165  0.95248  0.015538  0.011714  0.000000     1.326
   2.36768  1.30860 -0.02332  0.95841  0.014664  0.011477  0.000000     1.278
   2.42656  1.36747 -0.02476  0.96391  0.013901  0.011265  0.000000     1.234
   2.49537  1.43627 -0.02585  0.96895  0.013242  0.011078  0.000000     1.195
   2.57580  1.51669 -0.02647  0.97350  0.012676  0.010914  0.000000     1.161
   2.66978  1.61068 -0.02645  0.97757  0.012196  0.010772  0.000000     1.132
   2.77963  1.72052 -0.02558  0.98117  0.011794  0.010649  0.000000     1.107
   2.90801  1.84888 -0.02362  0.98429  0.011462  0.010545  0.000000     1.087
   3.05804  1.99888 -0.02028  0.98770  0.011164  0.010433  0.000000     1.070
