#    s        x        y     Ue/Vinf    Dstar     Theta      Cf       H
   0.00000  1.00000  0.00000  0.88272  0.029623  0.012585  0.000601     2.354
   0.00667  0.99364  0.00201  0.89051  0.027321  0.012115  0.000734     2.255
   0.01801  0.98283  0.00544  0.90152  0.024849  0.011499  0.000898     2.161
   0.03089  0.97055  0.00931  0.91507  0.022368  0.010808  0.001098     2.070
   0.04491  0.95712  0.01335  0.93016  0.020141  0.010108  0.001316     1.993
   0.05974  0.94286  0.01740  0.94578  0.018274  0.009452  0.001529     1.933
   0.07527  0.92786  0.02141  0.96109  0.016779  0.008862  0.001717     1.893
   0.09142  0.91220  0.02541  0.97604  0.015567  0.008332  0.001876     1.868
   0.10802  0.89609  0.02942  0.99073  0.014566  0.007849  0.002004     1.856
   0.12488  0.87971  0.03341  1.00512  0.013736  0.007408  0.002099     1.854
   0.14188  0.86318  0.03738  1.01919  0.013059  0.007004  0.002152     1.865
   0.15896  0.84656  0.04130  1.03300  0.012518  0.006631  0.002157     1.888
   0.17607  0.82989  0.04517  1.04660  0.012107  0.006284  0.002105     1.927
   0.19318  0.81321  0.04899  1.06022  0.011821  0.005956  0.001988     1.985
   0.21029  0.79652  0.05273  1.07417  0.011667  0.005636  0.001797     2.070
   0.22743  0.77978  0.05643  1.08914  0.011647  0.005312  0.001528     2.193
   0.24453  0.76308  0.06007  1.10621  0.011748  0.004960  0.001194     2.368
   0.26151  0.74647  0.06361  1.12656  0.011991  0.004563  0.000834     2.628
   0.27839  0.72994  0.06704  1.15211  0.012381  0.004091  0.000478     3.026
   0.29522  0.71344  0.07036  1.18540  0.012876  0.003512  0.000074     3.666
   0.31203  0.69694  0.07357  1.22926  0.013379  0.002803 -0.000238     4.774
   0.32881  0.68046  0.07667  1.27695  0.013767  0.002094 -0.000335     6.574
   0.34552  0.66401  0.07965  1.31686  0.013926  0.001556 -0.000430     8.953
   0.36216  0.64761  0.08250  1.31851  0.013909  0.001536 -0.000435     9.054
   0.37877  0.63123  0.08521  1.31998  0.013641  0.001520 -0.000441     8.976
   0.39539  0.61480  0.08779  1.32136  0.013204  0.001505 -0.000448     8.776
   0.41202  0.59836  0.09025  1.32272  0.012630  0.001490 -0.000456     8.474
   0.42857  0.58198  0.09257  1.32411  0.011958  0.001477 -0.000465     8.098
   0.44503  0.56566  0.09473  1.32560  0.011238  0.001462 -0.000475     7.684
   0.46148  0.54933  0.09674  1.32727  0.010500  0.001447 -0.000488     7.254
   0.47798  0.53293  0.09860  1.32918  0.009739  0.001431 -0.000505     6.806
   0.49446  0.51655  0.10033  1.33138  0.008955  0.001413 -0.000525     6.336
   0.51082  0.50026  0.10190  1.33397  0.008181  0.001394 -0.000550     5.871
   0.52710  0.48404  0.10328  1.33710  0.007455  0.001371 -0.000569     5.436
   0.54339  0.46779  0.10449  1.34088  0.006780  0.001346 -0.000571     5.036
   0.55971  0.45151  0.10554  1.34538  0.006144  0.001318 -0.000530     4.661
   0.57600  0.43525  0.10643  1.35067  0.005544  0.001287 -0.000408     4.308
   0.59218  0.41907  0.10713  1.35665  0.005006  0.001254 -0.000179     3.992
   0.60829  0.40298  0.10765  1.36340  0.004536  0.001218  0.000154     3.724
   0.62434  0.38693  0.10796  1.37095  0.004133  0.001180  0.000568     3.504
   0.64042  0.37085  0.10808  1.37909  0.003797  0.001139  0.001019     3.333
   0.65651  0.35476  0.10800  1.38766  0.003500  0.001097  0.001523     3.190
   0.67249  0.33878  0.10774  1.39666  0.003214  0.001054  0.002151     3.049
   0.68825  0.32303  0.10727  1.40537  0.002972  0.001012  0.002800     2.936
   0.70393  0.30737  0.10654  1.41289  0.002796  0.000974  0.003294     2.870
   0.71975  0.29158  0.10557  1.41944  0.002664  0.000939  0.003636     2.837
   0.73559  0.27578  0.10439  1.42674  0.002501  0.000901  0.004222     2.776
   0.75115  0.26028  0.10302  1.43416  0.002323  0.000862  0.005061     2.695
   0.76650  0.24502  0.10139  1.43899  0.002201  0.000829  0.005621     2.656
   0.78192  0.22972  0.09944  1.44161  0.002128  0.000801  0.005801     2.659
   0.79744  0.21436  0.09725  1.44514  0.002034  0.000769  0.006194     2.644
   0.81279  0.19920  0.09484  1.44927  0.001915  0.000735  0.006915     2.604
   0.82793  0.18429  0.09217  1.45104  0.001830  0.000706  0.007324     2.594
   0.84302  0.16950  0.08922  1.45203  0.001758  0.000677  0.007601     2.597
   0.85806  0.15481  0.08599  1.45328  0.001682  0.000646  0.007916     2.601
   0.87291  0.14036  0.08253  1.45522  0.001592  0.000614  0.008455     2.593
   0.88737  0.12638  0.07886  1.45768  0.001478  0.000579  0.009527     2.554
   0.90140  0.11290  0.07496  1.45696  0.001391  0.000547  0.010247     2.542
   0.91519  0.09977  0.07076  1.45398  0.001343  0.000519  0.010076     2.587
   0.92848  0.08721  0.06643  1.45561  0.001244  0.000483  0.011077     2.573
   0.94079  0.07568  0.06209  1.45750  0.001103  0.000445  0.013818     2.481
   0.95221  0.06515  0.05767  1.44845  0.001047  0.000419  0.014197     2.499
   0.96284  0.05550  0.05322  1.44058  0.001010  0.000393  0.013596     2.566
   0.97241  0.04692  0.04898  1.44030  0.000925  0.000361  0.014898     2.563
   0.98081  0.03952  0.04501  1.43975  0.000832  0.000329  0.017200     2.528
   0.98816  0.03319  0.04127  1.43509  0.000751  0.000301  0.019658     2.496
   0.99463  0.02777  0.03774  1.42599  0.000681  0.000276  0.022229     2.467
   1.00034  0.02313  0.03441  1.41218  0.000622  0.000254  0.024638     2.445
   1.00542  0.01915  0.03125  1.39433  0.000569  0.000235  0.027184     2.424
   1.00996  0.01574  0.02825  1.37210  0.000525  0.000217  0.029239     2.416
   1.01405  0.01281  0.02541  1.34662  0.000478  0.000200  0.032477     2.385
   1.01775  0.01030  0.02269  1.31347  0.000439  0.000186  0.035339     2.361
   1.02112  0.00816  0.02007  1.27279  0.000406  0.000174  0.037883     2.338
   1.02423  0.00634  0.01756  1.22527  0.000381  0.000163  0.038935     2.336
   1.02710  0.00481  0.01513  1.17293  0.000351  0.000152  0.041747     2.302
   1.02975  0.00353  0.01281  1.10959  0.000331  0.000145  0.042578     2.284
   1.03221  0.00250  0.01057  1.04109  0.000318  0.000139  0.041476     2.287
   1.03452  0.00166  0.00842  0.96971  0.000300  0.000132  0.041805     2.264
   1.03670  0.00100  0.00634  0.89145  0.000291  0.000128  0.039453     2.270
   1.03878  0.00049  0.00433  0.81715  0.000281  0.000121  0.035597     2.322
   1.04077  0.00014  0.00237  0.74085  0.000249  0.000109  0.037955     2.280
   1.04268 -0.00001  0.00047  0.64181  0.000228  0.000100  0.035727     2.285
   1.04452  0.00009 -0.00138  0.51824  0.000203  0.000090  0.033465     2.247
   1.04638  0.00049 -0.00318  0.35861  0.000197  0.000089  0.024449     2.221
   1.04830  0.00119 -0.00498  0.18937  0.000209  0.000094  0.012159     2.220
   1.05035  0.00220 -0.00676  0.03660  0.000232  0.000104  0.002105     2.230
   1.05254  0.00351 -0.00851 -0.10656  0.000232  0.000104  0.006131     2.230
   1.05487  0.00512 -0.01021 -0.22864  0.000271  0.000120  0.010852     2.267
   1.05738  0.00701 -0.01184 -0.33144  0.000293  0.000131  0.014979     2.238
   1.06008  0.00920 -0.01343 -0.41203  0.000343  0.000149  0.014920     2.307
   1.06301  0.01168 -0.01499 -0.48155  0.000367  0.000162  0.017050     2.259
   1.06622  0.01448 -0.01656 -0.53813  0.000422  0.000181  0.015557     2.326
   1.06978  0.01766 -0.01815 -0.58957  0.000450  0.000197  0.016547     2.288
   1.07377  0.02129 -0.01981 -0.63573  0.000500  0.000215  0.015541     2.323
   1.07825  0.02543 -0.02154 -0.68028  0.000533  0.000231  0.015884     2.304
   1.08332  0.03017 -0.02333 -0.72285  0.000577  0.000249  0.015379     2.318
   1.08907  0.03561 -0.02519 -0.76254  0.000624  0.000268  0.014905     2.326
   1.09564  0.04190 -0.02708 -0.79860  0.000681  0.000290  0.014089     2.343
   1.10320  0.04922 -0.02900 -0.82849  0.000756  0.000318  0.012770     2.374
   1.11196  0.05776 -0.03093 -0.85188  0.000847  0.000352  0.011367     2.404
   1.12207  0.06768 -0.03288 -0.87310  0.000930  0.000387  0.010612     2.404
   1.13350  0.07895 -0.03481 -0.89280  0.001016  0.000422  0.009903     2.407
   1.14613  0.09144 -0.03664 -0.90929  0.001115  0.000460  0.009053     2.422
   1.15994  0.10515 -0.03835 -0.92120  0.001233  0.000503  0.008051     2.451
   1.17469  0.11981 -0.03996 -0.93377  0.001312  0.000540  0.007830     2.431
   1.18993  0.13498 -0.04141 -0.94568  0.001394  0.000574  0.007498     2.426
   1.20552  0.15051 -0.04267 -0.95551  0.001486  0.000610  0.007035     2.436
   1.22143  0.16639 -0.04375 -0.96342  0.001581  0.000646  0.006580     2.449
   1.23764  0.18258 -0.04467 -0.96983  0.001676  0.000681  0.006176     2.460
   1.25400  0.19892 -0.04546 -0.97624  0.001752  0.000713  0.005981     2.455
   1.27036  0.21526 -0.04609 -0.98260  0.001818  0.000743  0.005842     2.448
   1.28677  0.23166 -0.04656 -0.98726  0.001908  0.000775  0.005514     2.462
   1.30335  0.24824 -0.04689 -0.99073  0.002002  0.000808  0.005185     2.478
   1.32002  0.26491 -0.04711 -0.99470  0.002068  0.000836  0.005065     2.473
   1.33663  0.28153 -0.04721 -0.99844  0.002135  0.000864  0.004939     2.471
   1.35321  0.29810 -0.04717 -1.00134  0.002213  0.000893  0.004740     2.478
   1.36986  0.31475 -0.04699 -1.00325  0.002303  0.000923  0.004487     2.494
   1.38656  0.33145 -0.04670 -1.00511  0.002380  0.000952  0.004320     2.501
   1.40323  0.34811 -0.04629 -1.00666  0.002457  0.000980  0.004165     2.507
   1.41985  0.36473 -0.04576 -1.00767  0.002540  0.001009  0.003987     2.517
   1.43647  0.38133 -0.04510 -1.00783  0.002638  0.001040  0.003757     2.537
   1.45309  0.39793 -0.04431 -1.00728  0.002746  0.001072  0.003515     2.561
   1.46972  0.41453 -0.04339 -1.00620  0.002858  0.001105  0.003280     2.586
   1.48633  0.43111 -0.04234 -1.00424  0.002991  0.001141  0.003003     2.621
   1.50291  0.44765 -0.04116 -1.00152  0.003142  0.001179  0.002711     2.664
   1.51945  0.46414 -0.03985 -0.99784  0.003325  0.001221  0.002375     2.723
   1.53596  0.48059 -0.03840 -0.99320  0.003551  0.001267  0.001995     2.803
   1.55247  0.49701 -0.03680 -0.98747  0.003851  0.001318  0.001550     2.921
   1.56903  0.51348 -0.03504 -0.98109  0.004236  0.001373  0.001077     3.085
   1.58574  0.53008 -0.03313 -0.97459  0.004727  0.001429  0.000613     3.309
   1.60264  0.54687 -0.03109 -0.96863  0.005316  0.001481  0.000221     3.590
   1.61973  0.56382 -0.02896 -0.96355  0.005985  0.001527 -0.000061     3.919
   1.63695  0.58089 -0.02675 -0.95922  0.006727  0.001568 -0.000232     4.289
   1.65426  0.59806 -0.02449 -0.95544  0.007524  0.001606 -0.000313     4.685
   1.67164  0.61529 -0.02221 -0.95227  0.008358  0.001640 -0.000335     5.095
   1.68905  0.63255 -0.01994 -0.94962  0.009206  0.001671 -0.000332     5.510
   1.70644  0.64979 -0.01769 -0.94739  0.010055  0.001698 -0.000319     5.921
   1.72377  0.66698 -0.01547 -0.94550  0.010900  0.001723 -0.000306     6.327
   1.74101  0.68409 -0.01330 -0.94386  0.011722  0.001746 -0.000295     6.715
   1.75815  0.70109 -0.01119 -0.94241  0.012503  0.001767 -0.000286     7.076
   1.77520  0.71802 -0.00917 -0.94109  0.013226  0.001787 -0.000279     7.400
   1.79217  0.73488 -0.00723 -0.93986  0.013884  0.001807 -0.000273     7.684
   1.80907  0.75168 -0.00538 -0.93869  0.014463  0.001826 -0.000268     7.919
   1.82588  0.76841 -0.00365 -0.93756  0.014961  0.001846 -0.000263     8.105
   1.84259  0.78504 -0.00203 -0.93645  0.015352  0.001866 -0.000259     8.228
   1.85920  0.80157 -0.00054 -0.93533  0.015632  0.001887 -0.000256     8.286
   1.87568  0.81800  0.00080 -0.93418  0.015780  0.001908 -0.000253     8.270
   1.89204  0.83432  0.00198 -0.93298  0.015783  0.001931 -0.000250     8.174
   1.90829  0.85054  0.00299 -0.93171  0.015620  0.001955 -0.000248     7.988
   1.92442  0.86665  0.00381 -0.93034  0.015276  0.001982 -0.000246     7.709
   1.94041  0.88262  0.00443 -0.92885  0.014735  0.002010 -0.000245     7.332
   1.95619  0.89840  0.00486 -0.92721  0.013967  0.002040 -0.000246     6.846
   1.97170  0.91391  0.00506 -0.92028  0.012955  0.002171 -0.000182     5.968
   1.98685  0.92905  0.00502 -0.89479  0.011758  0.002655 -0.000117     4.429
   2.00150  0.94370  0.00473 -0.87227  0.010381  0.003086  0.000218     3.364
   2.01546  0.95766  0.00418 -0.85933  0.008964  0.003331  0.000789     2.691
   2.02853  0.97070  0.00337 -0.85591  0.007618  0.003401  0.001485     2.240
   2.04056  0.98268  0.00230 -0.86253  0.006365  0.003311  0.002322     1.922
   2.05143  0.99347  0.00100 -0.88113  0.005178  0.003072  0.003427     1.685
   2.05803  1.00000  0.00000 -0.88272  0.005005  0.003067  0.003669     1.632
   2.05803  1.00010 -0.00002  0.88272  0.034627  0.015653  0.000000     2.212
   2.06467  1.00659 -0.00141  0.88885  0.031535  0.015210  0.000000     2.073
   2.07243  1.01423 -0.00277  0.89176  0.029845  0.015011  0.000000     1.988
   2.08150  1.02318 -0.00418  0.89492  0.028220  0.014803  0.000000     1.906
   2.09210  1.03368 -0.00568  0.89851  0.026623  0.014576  0.000000     1.826
   2.10448  1.04596 -0.00727  0.90271  0.025032  0.014321  0.000000     1.748
   2.11896  1.06033 -0.00896  0.90761  0.023458  0.014036  0.000000     1.671
   2.13587  1.07716 -0.01075  0.91322  0.021922  0.013726  0.000000     1.597
   2.15564  1.09683 -0.01265  0.91945  0.020451  0.013397  0.000000     1.527
   2.17875  1.11985 -0.01465  0.92617  0.019072  0.013061  0.000000     1.460
   2.20575  1.14678 -0.01673  0.93316  0.017805  0.012728  0.000000     1.399
   2.23731  1.17826 -0.01888  0.94019  0.016661  0.012410  0.000000     1.343
   2.27420  1.21508 -0.02107  0.94707  0.015645  0.012114  0.000000     1.292
   2.31730  1.25813 -0.02326  0.95363  0.014754  0.011844  0.000000     1.246
   2.36768  1.30847 -0.02542  0.95975  0.013981  0.011602  0.000000     1.205
   2.42656  1.36731 -0.02747  0.96537  0.013316  0.011388  0.000000     1.169
   2.49537  1.43610 -0.02933  0.97046  0.012750  0.011201  0.000000     1.138
   2.57580  1.51650 -0.03090  0.97502  0.012274  0.011038  0.000000     1.112
   2.66978  1.61049 -0.03206  0.97906  0.011878  0.010898  0.000000     1.090
   2.77963  1.72033 -0.03265  0.98258  0.011553  0.010778  0.000000     1.072
   2.90801  1.84871 -0.03249  0.98561  0.011289  0.010676  0.000000     1.057
   3.05804  1.99874 -0.03137  0.98875  0.011058  0.010574  0.000000     1.046
