#    s        x        y     Ue/Vinf    Dstar     Theta      Cf       H
   0.00000  1.00000  0.00000  0.90941  0.032238  0.012779  0.000465     2.523
   0.00667  0.99364  0.00201  0.91482  0.030106  0.012443  0.000570     2.420
   0.01801  0.98283  0.00544  0.92335  0.027513  0.011945  0.000721     2.303
   0.03089  0.97055  0.00931  0.93447  0.024796  0.011347  0.000918     2.185
   0.04491  0.95712  0.01335  0.94761  0.022247  0.010703  0.001150     2.079
   0.05974  0.94286  0.01740  0.96204  0.020005  0.010061  0.001404     1.988
   0.07527  0.92786  0.02141  0.97698  0.018111  0.009454  0.001663     1.916
   0.09142  0.91220  0.02541  0.99233  0.016488  0.008884  0.001927     1.856
   0.10802  0.89609  0.02942  1.00802  0.015078  0.008350  0.002197     1.806
   0.12488  0.87971  0.03341  1.02398  0.013841  0.007849  0.002472     1.763
   0.14188  0.86318  0.03738  1.04004  0.012756  0.007385  0.002750     1.727
   0.15896  0.84656  0.04130  1.05618  0.011798  0.006953  0.003029     1.697
   0.17607  0.82989  0.04517  1.07222  0.010954  0.006554  0.003306     1.671
   0.19318  0.81321  0.04899  1.08821  0.010204  0.006184  0.003580     1.650
   0.21029  0.79652  0.05273  1.10405  0.009538  0.005841  0.003847     1.633
   0.22743  0.77978  0.05643  1.11980  0.008941  0.005522  0.004106     1.619
   0.24453  0.76308  0.06007  1.13595  0.008385  0.005216  0.004371     1.608
   0.26151  0.74647  0.06361  1.15202  0.007885  0.004930  0.004625     1.599
   0.27839  0.72994  0.06704  1.16765  0.007447  0.004668  0.004850     1.595
   0.29522  0.71344  0.07036  1.18280  0.007067  0.004427  0.005038     1.596
   0.31203  0.69694  0.07357  1.19743  0.006742  0.004206  0.005177     1.603
   0.32881  0.68046  0.07667  1.21179  0.006462  0.004000  0.005262     1.616
   0.34552  0.66401  0.07965  1.22570  0.006234  0.003808  0.005269     1.637
   0.36216  0.64761  0.08250  1.23915  0.006061  0.003632  0.005176     1.669
   0.37877  0.63123  0.08521  1.25189  0.005961  0.003470  0.004938     1.718
   0.39539  0.61480  0.08779  1.26435  0.005942  0.003319  0.004528     1.790
   0.41202  0.59836  0.09025  1.27763  0.006008  0.003168  0.003933     1.897
   0.42857  0.58198  0.09257  1.29285  0.006177  0.003004  0.003238     2.056
   0.44503  0.56566  0.09473  1.31152  0.006489  0.002816  0.002519     2.304
   0.46148  0.54933  0.09674  1.33715  0.006960  0.002572  0.001553     2.706
   0.47798  0.53293  0.09860  1.37343  0.007539  0.002244  0.000479     3.359
   0.49446  0.51655  0.10033  1.42463  0.008093  0.001807 -0.000312     4.479
   0.51082  0.50026  0.10190  1.47302  0.008459  0.001423 -0.000592     5.945
   0.52710  0.48404  0.10328  1.47645  0.008566  0.001399 -0.000596     6.124
   0.54339  0.46779  0.10449  1.47970  0.008463  0.001376 -0.000606     6.149
   0.55971  0.45151  0.10554  1.48293  0.008206  0.001354 -0.000621     6.059
   0.57600  0.43525  0.10643  1.48625  0.007834  0.001333 -0.000640     5.878
   0.59218  0.41907  0.10713  1.48979  0.007398  0.001311 -0.000661     5.644
   0.60829  0.40298  0.10765  1.49367  0.006931  0.001288 -0.000676     5.383
   0.62434  0.38693  0.10796  1.49802  0.006456  0.001263 -0.000684     5.110
   0.64042  0.37085  0.10808  1.50295  0.005977  0.001237 -0.000670     4.831
   0.65651  0.35476  0.10800  1.50857  0.005502  0.001209 -0.000611     4.552
   0.67249  0.33878  0.10774  1.51490  0.005019  0.001179 -0.000464     4.258
   0.68825  0.32303  0.10727  1.52188  0.004568  0.001147 -0.000207     3.982
   0.70393  0.30737  0.10654  1.52961  0.004205  0.001114  0.000097     3.775
   0.71975  0.29158  0.10557  1.53809  0.003899  0.001078  0.000426     3.615
   0.73559  0.27578  0.10439  1.54747  0.003582  0.001041  0.000907     3.442
   0.75115  0.26028  0.10302  1.55765  0.003266  0.001001  0.001575     3.263
   0.76650  0.24502  0.10139  1.56748  0.003043  0.000963  0.002095     3.160
   0.78192  0.22972  0.09944  1.57673  0.002895  0.000927  0.002380     3.122
   0.79744  0.21436  0.09725  1.58668  0.002733  0.000890  0.002778     3.070
   0.81279  0.19920  0.09484  1.59724  0.002557  0.000852  0.003348     3.001
   0.82793  0.18429  0.09217  1.60704  0.002426  0.000816  0.003713     2.972
   0.84302  0.16950  0.08922  1.61678  0.002318  0.000781  0.003944     2.967
   0.85806  0.15481  0.08599  1.62730  0.002206  0.000745  0.004201     2.962
   0.87291  0.14036  0.08253  1.63909  0.002075  0.000707  0.004679     2.936
   0.88737  0.12638  0.07886  1.65184  0.001926  0.000667  0.005461     2.887
   0.90140  0.11290  0.07496  1.66370  0.001810  0.000630  0.005968     2.873
   0.91519  0.09977  0.07076  1.67506  0.001741  0.000595  0.005785     2.926
   0.92848  0.08721  0.06643  1.69088  0.001600  0.000554  0.006714     2.889
   0.94079  0.07568  0.06209  1.70787  0.001429  0.000512  0.008656     2.793
   0.95221  0.06515  0.05767  1.71942  0.001359  0.000479  0.008627     2.838
   0.96284  0.05550  0.05322  1.73332  0.001306  0.000446  0.007953     2.929
   0.97241  0.04692  0.04898  1.75356  0.001184  0.000408  0.009236     2.902
   0.98081  0.03952  0.04501  1.77447  0.001050  0.000371  0.011697     2.827
   0.98816  0.03319  0.04127  1.79291  0.000935  0.000339  0.014500     2.760
   0.99463  0.02777  0.03774  1.80836  0.000836  0.000310  0.017627     2.701
   1.00034  0.02313  0.03441  1.82039  0.000751  0.000284  0.021102     2.646
   1.00542  0.01915  0.03125  1.82814  0.000682  0.000261  0.024254     2.613
   1.00996  0.01574  0.02825  1.83328  0.000616  0.000240  0.028305     2.568
   1.01405  0.01281  0.02541  1.83372  0.000559  0.000221  0.032721     2.526
   1.01775  0.01030  0.02269  1.82880  0.000506  0.000204  0.038028     2.476
   1.02112  0.00816  0.02007  1.81580  0.000465  0.000190  0.042454     2.445
   1.02423  0.00634  0.01756  1.79663  0.000426  0.000177  0.047652     2.406
   1.02710  0.00481  0.01513  1.76877  0.000396  0.000167  0.051777     2.380
   1.02975  0.00353  0.01281  1.73410  0.000370  0.000157  0.055887     2.352
   1.03221  0.00250  0.01057  1.69187  0.000349  0.000150  0.058607     2.336
   1.03452  0.00166  0.00842  1.64517  0.000338  0.000143  0.057697     2.358
   1.03670  0.00100  0.00634  1.60263  0.000324  0.000136  0.056546     2.393
   1.03878  0.00049  0.00433  1.56687  0.000308  0.000126  0.054880     2.452
   1.04077  0.00014  0.00237  1.53550  0.000267  0.000111  0.065336     2.400
   1.04268 -0.00001  0.00047  1.48054  0.000234  0.000099  0.074116     2.369
   1.04452  0.00009 -0.00138  1.38876  0.000201  0.000088  0.087709     2.283
   1.04638  0.00049 -0.00318  1.23074  0.000187  0.000085  0.089190     2.212
   1.04830  0.00119 -0.00498  1.03054  0.000193  0.000088  0.072871     2.203
   1.05035  0.00220 -0.00676  0.83278  0.000204  0.000093  0.055555     2.206
   1.05254  0.00351 -0.00851  0.64576  0.000216  0.000098  0.040563     2.208
   1.05487  0.00512 -0.01021  0.46968  0.000233  0.000106  0.027626     2.197
   1.05738  0.00701 -0.01184  0.31285  0.000261  0.000118  0.016196     2.213
   1.06008  0.00920 -0.01343  0.17963  0.000291  0.000132  0.008401     2.207
   1.06301  0.01168 -0.01499  0.06798  0.000333  0.000149  0.002722     2.230
   1.06622  0.01448 -0.01656 -0.03372  0.000333  0.000149  0.001351     2.230
   1.06978  0.01766 -0.01815 -0.11993  0.000408  0.000181  0.003808     2.261
   1.07377  0.02129 -0.01981 -0.19753  0.000426  0.000192  0.006225     2.222
   1.07825  0.02543 -0.02154 -0.27185  0.000467  0.000206  0.007488     2.269
   1.08332  0.03017 -0.02333 -0.33931  0.000506  0.000224  0.008719     2.258
   1.08907  0.03561 -0.02519 -0.40528  0.000543  0.000240  0.009641     2.265
   1.09564  0.04190 -0.02708 -0.46415  0.000602  0.000263  0.009691     2.294
   1.10320  0.04922 -0.02900 -0.51783  0.000659  0.000287  0.009889     2.293
   1.11196  0.05776 -0.03093 -0.56562  0.000735  0.000317  0.009461     2.318
   1.12207  0.06768 -0.03288 -0.60791  0.000813  0.000350  0.009124     2.325
   1.13350  0.07895 -0.03481 -0.64824  0.000881  0.000380  0.009039     2.319
   1.14613  0.09144 -0.03664 -0.68309  0.000971  0.000415  0.008453     2.342
   1.15994  0.10515 -0.03835 -0.71129  0.001072  0.000454  0.007809     2.363
   1.17469  0.11981 -0.03996 -0.73822  0.001142  0.000487  0.007741     2.346
   1.18993  0.13498 -0.04141 -0.76293  0.001215  0.000518  0.007504     2.347
   1.20552  0.15051 -0.04267 -0.78360  0.001301  0.000551  0.007096     2.362
   1.22143  0.16639 -0.04375 -0.80118  0.001384  0.000584  0.006755     2.372
   1.23764  0.18258 -0.04467 -0.81621  0.001468  0.000616  0.006430     2.381
   1.25400  0.19892 -0.04546 -0.83062  0.001531  0.000645  0.006318     2.374
   1.27036  0.21526 -0.04609 -0.84402  0.001593  0.000672  0.006185     2.371
   1.28677  0.23166 -0.04656 -0.85523  0.001671  0.000701  0.005898     2.384
   1.30335  0.24824 -0.04689 -0.86463  0.001753  0.000731  0.005605     2.399
   1.32002  0.26491 -0.04711 -0.87400  0.001812  0.000757  0.005509     2.394
   1.33663  0.28153 -0.04721 -0.88306  0.001866  0.000781  0.005435     2.388
   1.35321  0.29810 -0.04717 -0.89076  0.001935  0.000807  0.005241     2.397
   1.36986  0.31475 -0.04699 -0.89742  0.002007  0.000834  0.005038     2.407
   1.38656  0.33145 -0.04670 -0.90359  0.002072  0.000859  0.004889     2.412
   1.40323  0.34811 -0.04629 -0.90949  0.002131  0.000883  0.004783     2.413
   1.41985  0.36473 -0.04576 -0.91455  0.002198  0.000908  0.004629     2.420
   1.43647  0.38133 -0.04510 -0.91882  0.002270  0.000934  0.004455     2.430
   1.45309  0.39793 -0.04431 -0.92232  0.002348  0.000961  0.004268     2.443
   1.46972  0.41453 -0.04339 -0.92517  0.002427  0.000988  0.004085     2.456
   1.48633  0.43111 -0.04234 -0.92738  0.002510  0.001016  0.003902     2.470
   1.50291  0.44765 -0.04116 -0.92880  0.002603  0.001046  0.003696     2.489
   1.51945  0.46414 -0.03985 -0.92936  0.002707  0.001077  0.003467     2.513
   1.53596  0.48059 -0.03840 -0.92894  0.002827  0.001111  0.003205     2.544
   1.55247  0.49701 -0.03680 -0.92716  0.002982  0.001150  0.002873     2.592
   1.56903  0.51348 -0.03504 -0.92415  0.003171  0.001194  0.002502     2.656
   1.58574  0.53008 -0.03313 -0.91998  0.003401  0.001242  0.002100     2.738
   1.60264  0.54687 -0.03109 -0.91516  0.003658  0.001293  0.001724     2.829
   1.61973  0.56382 -0.02896 -0.91008  0.003930  0.001345  0.001397     2.922
   1.63695  0.58089 -0.02675 -0.90491  0.004216  0.001397  0.001117     3.018
   1.65426  0.59806 -0.02449 -0.89980  0.004512  0.001448  0.000880     3.115
   1.67164  0.61529 -0.02221 -0.89485  0.004812  0.001499  0.000684     3.211
   1.68905  0.63255 -0.01994 -0.89016  0.005106  0.001547  0.000529     3.300
   1.70644  0.64979 -0.01769 -0.88570  0.005397  0.001595  0.000404     3.384
   1.72377  0.66698 -0.01547 -0.88149  0.005688  0.001640  0.000299     3.468
   1.74101  0.68409 -0.01330 -0.87752  0.005972  0.001684  0.000215     3.545
   1.75815  0.70109 -0.01119 -0.87380  0.006244  0.001727  0.000150     3.615
   1.77520  0.71802 -0.00917 -0.87030  0.006494  0.001768  0.000103     3.673
   1.79217  0.73488 -0.00723 -0.86699  0.006719  0.001808  0.000070     3.717
   1.80907  0.75168 -0.00538 -0.86387  0.006915  0.001846  0.000050     3.746
   1.82588  0.76841 -0.00365 -0.86090  0.007086  0.001884  0.000039     3.762
   1.84259  0.78504 -0.00203 -0.85809  0.007215  0.001920  0.000040     3.758
   1.85920  0.80157 -0.00054 -0.85543  0.007305  0.001955  0.000052     3.737
   1.87568  0.81800  0.00080 -0.85292  0.007344  0.001989  0.000077     3.693
   1.89204  0.83432  0.00198 -0.85059  0.007327  0.002021  0.000118     3.626
   1.90829  0.85054  0.00299 -0.84848  0.007249  0.002051  0.000179     3.535
   1.92442  0.86665  0.00381 -0.84667  0.007110  0.002077  0.000263     3.423
   1.94041  0.88262  0.00443 -0.84529  0.006914  0.002099  0.000376     3.294
   1.95619  0.89840  0.00486 -0.84450  0.006668  0.002114  0.000521     3.153
   1.97170  0.91391  0.00506 -0.84455  0.006366  0.002120  0.000708     3.002
   1.98685  0.92905  0.00502 -0.84582  0.006009  0.002114  0.000951     2.843
   2.00150  0.94370  0.00473 -0.84879  0.005596  0.002090  0.001268     2.678
   2.01546  0.95766  0.00418 -0.85411  0.005133  0.002045  0.001684     2.511
   2.02853  0.97070  0.00337 -0.86277  0.004617  0.001972  0.002247     2.341
   2.04056  0.98268  0.00230 -0.87690  0.004025  0.001861  0.003081     2.163
   2.05143  0.99347  0.00100 -0.90116  0.003327  0.001690  0.004484     1.969
   2.05803  1.00000  0.00000 -0.90941  0.003195  0.001649  0.004824     1.938
   2.05803  1.00010 -0.00002  0.90941  0.035433  0.014428  0.000000     2.456
   2.06467  1.00659 -0.00140  0.91238  0.033178  0.014222  0.000000     2.333
   2.07243  1.01424 -0.00272  0.91354  0.031939  0.014145  0.000000     2.258
   2.08150  1.02320 -0.00407  0.91479  0.030712  0.014064  0.000000     2.184
   2.09210  1.03371 -0.00547  0.91625  0.029458  0.013971  0.000000     2.108
   2.10448  1.04601 -0.00693  0.91807  0.028150  0.013859  0.000000     2.031
   2.11896  1.06040 -0.00844  0.92036  0.026787  0.013722  0.000000     1.952
   2.13587  1.07725 -0.01000  0.92318  0.025381  0.013558  0.000000     1.872
   2.15564  1.09695 -0.01158  0.92660  0.023952  0.013368  0.000000     1.792
   2.17875  1.12000 -0.01317  0.93062  0.022526  0.013153  0.000000     1.713
   2.20575  1.14696 -0.01473  0.93517  0.021134  0.012919  0.000000     1.636
   2.23731  1.17849 -0.01620  0.94015  0.019803  0.012675  0.000000     1.562
   2.27420  1.21535 -0.01753  0.94539  0.018557  0.012428  0.000000     1.493
   2.31730  1.25844 -0.01863  0.95075  0.017412  0.012188  0.000000     1.429
   2.36768  1.30882 -0.01940  0.95606  0.016375  0.011959  0.000000     1.369
   2.42656  1.36769 -0.01971  0.96119  0.015450  0.011747  0.000000     1.315
   2.49537  1.43651 -0.01939  0.96605  0.014634  0.011554  0.000000     1.267
   2.57580  1.51692 -0.01824  0.97056  0.013922  0.011381  0.000000     1.223
   2.66978  1.61088 -0.01602  0.97469  0.013306  0.011227  0.000000     1.185
   2.77963  1.72067 -0.01244  0.97840  0.012780  0.011093  0.000000     1.152
   2.90801  1.84894 -0.00713  0.98170  0.012339  0.010976  0.000000     1.124
   3.05804  1.99879  0.00032  0.98557  0.011931  0.010843  0.000000     1.100
