#    s        x        y     Ue/Vinf    Dstar     Theta      Cf       H
   0.00000  1.00000  0.00000  0.89392  0.029751  0.012959  0.000673     2.296
   0.00667  0.99364  0.00201  0.90150  0.027552  0.012500  0.000810     2.204
   0.01801  0.98283  0.00544  0.91246  0.025051  0.011881  0.000991     2.108
   0.03089  0.97055  0.00931  0.92616  0.022499  0.011176  0.001220     2.013
   0.04491  0.95712  0.01335  0.94162  0.020173  0.010455  0.001477     1.930
   0.05974  0.94286  0.01740  0.95783  0.018186  0.009769  0.001744     1.861
   0.07527  0.92786  0.02141  0.97390  0.016558  0.009151  0.001999     1.809
   0.09142  0.91220  0.02541  0.98978  0.015200  0.008589  0.002243     1.770
   0.10802  0.89609  0.02942  1.00553  0.014041  0.008076  0.002476     1.739
   0.12488  0.87971  0.03341  1.02113  0.013040  0.007605  0.002698     1.715
   0.14188  0.86318  0.03738  1.03651  0.012174  0.007174  0.002904     1.697
   0.15896  0.84656  0.04130  1.05166  0.011420  0.006777  0.003093     1.685
   0.17607  0.82989  0.04517  1.06648  0.010768  0.006413  0.003258     1.679
   0.19318  0.81321  0.04899  1.08104  0.010202  0.006077  0.003396     1.679
   0.21029  0.79652  0.05273  1.09527  0.009716  0.005767  0.003498     1.685
   0.22743  0.77978  0.05643  1.10926  0.009304  0.005479  0.003556     1.698
   0.24453  0.76308  0.06007  1.12345  0.008941  0.005203  0.003575     1.718
   0.26151  0.74647  0.06361  1.13744  0.008651  0.004945  0.003528     1.749
   0.27839  0.72994  0.06704  1.15100  0.008453  0.004707  0.003389     1.796
   0.29522  0.71344  0.07036  1.16441  0.008355  0.004483  0.003141     1.864
   0.31203  0.69694  0.07357  1.17815  0.008373  0.004264  0.002764     1.963
   0.32881  0.68046  0.07667  1.19325  0.008516  0.004036  0.002257     2.110
   0.34552  0.66401  0.07965  1.21130  0.008804  0.003777  0.001672     2.331
   0.36216  0.64761  0.08250  1.23468  0.009244  0.003459  0.001124     2.673
   0.37877  0.63123  0.08521  1.26661  0.009828  0.003044  0.000458     3.228
   0.39539  0.61480  0.08779  1.31040  0.010468  0.002508 -0.000162     4.174
   0.41202  0.59836  0.09025  1.36445  0.011001  0.001892 -0.000398     5.815
   0.42857  0.58198  0.09257  1.40299  0.011295  0.001488 -0.000496     7.590
   0.44503  0.56566  0.09473  1.40529  0.011351  0.001467 -0.000502     7.738
   0.46148  0.54933  0.09674  1.40739  0.011182  0.001448 -0.000509     7.724
   0.47798  0.53293  0.09860  1.40941  0.010846  0.001430 -0.000519     7.584
   0.49446  0.51655  0.10033  1.41142  0.010371  0.001413 -0.000530     7.340
   0.51082  0.50026  0.10190  1.41350  0.009810  0.001396 -0.000544     7.026
   0.52710  0.48404  0.10328  1.41577  0.009217  0.001379 -0.000561     6.685
   0.54339  0.46779  0.10449  1.41831  0.008605  0.001360 -0.000582     6.326
   0.55971  0.45151  0.10554  1.42121  0.007971  0.001340 -0.000606     5.948
   0.57600  0.43525  0.10643  1.42455  0.007317  0.001318 -0.000630     5.550
   0.59218  0.41907  0.10713  1.42846  0.006686  0.001295 -0.000639     5.165
   0.60829  0.40298  0.10765  1.43307  0.006089  0.001268 -0.000618     4.801
   0.62434  0.38693  0.10796  1.43847  0.005536  0.001239 -0.000534     4.467
   0.64042  0.37085  0.10808  1.44465  0.005034  0.001208 -0.000364     4.167
   0.65651  0.35476  0.10800  1.45159  0.004571  0.001174 -0.000082     3.892
   0.67249  0.33878  0.10774  1.45943  0.004133  0.001138  0.000351     3.631
   0.68825  0.32303  0.10727  1.46813  0.003748  0.001099  0.000902     3.410
   0.70393  0.30737  0.10654  1.47710  0.003460  0.001060  0.001406     3.264
   0.71975  0.29158  0.10557  1.48609  0.003234  0.001021  0.001844     3.167
   0.73559  0.27578  0.10439  1.49575  0.002993  0.000980  0.002460     3.053
   0.75115  0.26028  0.10302  1.50574  0.002751  0.000939  0.003267     2.931
   0.76650  0.24502  0.10139  1.51415  0.002583  0.000902  0.003850     2.865
   0.78192  0.22972  0.09944  1.52098  0.002477  0.000869  0.004115     2.850
   0.79744  0.21436  0.09725  1.52849  0.002354  0.000834  0.004522     2.822
   0.81279  0.19920  0.09484  1.53660  0.002211  0.000798  0.005176     2.771
   0.82793  0.18429  0.09217  1.54320  0.002106  0.000765  0.005583     2.754
   0.84302  0.16950  0.08922  1.54927  0.002019  0.000733  0.005827     2.756
   0.85806  0.15481  0.08599  1.55608  0.001925  0.000699  0.006154     2.754
   0.87291  0.14036  0.08253  1.56372  0.001819  0.000664  0.006653     2.741
   0.88737  0.12638  0.07886  1.57242  0.001687  0.000626  0.007640     2.696
   0.90140  0.11290  0.07496  1.57884  0.001591  0.000592  0.008204     2.688
   0.91519  0.09977  0.07076  1.58421  0.001533  0.000560  0.008048     2.737
   0.92848  0.08721  0.06643  1.59446  0.001409  0.000521  0.009185     2.704
   0.94079  0.07568  0.06209  1.60496  0.001258  0.000481  0.011488     2.616
   0.95221  0.06515  0.05767  1.60771  0.001196  0.000452  0.011652     2.649
   0.96284  0.05550  0.05322  1.61241  0.001153  0.000422  0.011012     2.728
   0.97241  0.04692  0.04898  1.62428  0.001053  0.000387  0.012277     2.719
   0.98081  0.03952  0.04501  1.63674  0.000941  0.000353  0.014716     2.669
   0.98816  0.03319  0.04127  1.64610  0.000842  0.000322  0.017592     2.617
   0.99463  0.02777  0.03774  1.65116  0.000760  0.000295  0.020435     2.578
   1.00034  0.02313  0.03441  1.65241  0.000690  0.000271  0.023309     2.548
   1.00542  0.01915  0.03125  1.65018  0.000627  0.000249  0.026516     2.516
   1.00996  0.01574  0.02825  1.64365  0.000574  0.000230  0.029582     2.493
   1.01405  0.01281  0.02541  1.63355  0.000521  0.000212  0.033636     2.456
   1.01775  0.01030  0.02269  1.61683  0.000475  0.000196  0.038071     2.417
   1.02112  0.00816  0.02007  1.59197  0.000440  0.000183  0.041192     2.399
   1.02423  0.00634  0.01756  1.56184  0.000405  0.000171  0.045151     2.369
   1.02710  0.00481  0.01513  1.52355  0.000378  0.000161  0.048326     2.346
   1.02975  0.00353  0.01281  1.47768  0.000351  0.000152  0.052228     2.309
   1.03221  0.00250  0.01057  1.42253  0.000338  0.000146  0.051708     2.318
   1.03452  0.00166  0.00842  1.36733  0.000320  0.000139  0.053582     2.299
   1.03670  0.00100  0.00634  1.30758  0.000312  0.000133  0.050832     2.334
   1.03878  0.00049  0.00433  1.25595  0.000297  0.000125  0.048686     2.386
   1.04077  0.00014  0.00237  1.20702  0.000263  0.000111  0.054048     2.363
   1.04268 -0.00001  0.00047  1.13724  0.000230  0.000099  0.060227     2.328
   1.04452  0.00009 -0.00138  1.02815  0.000202  0.000090  0.066169     2.257
   1.04638  0.00049 -0.00318  0.87038  0.000194  0.000087  0.059932     2.229
   1.04830  0.00119 -0.00498  0.68626  0.000197  0.000089  0.047684     2.203
   1.05035  0.00220 -0.00676  0.49989  0.000213  0.000097  0.031963     2.205
   1.05254  0.00351 -0.00851  0.33492  0.000228  0.000102  0.019516     2.232
   1.05487  0.00512 -0.01021  0.18050  0.000240  0.000109  0.010224     2.208
   1.05738  0.00701 -0.01184  0.04712  0.000292  0.000131  0.002150     2.230
   1.06008  0.00920 -0.01343 -0.06412  0.000292  0.000131  0.002927     2.230
   1.06301  0.01168 -0.01499 -0.15941  0.000347  0.000153  0.005935     2.265
   1.06622  0.01448 -0.01656 -0.24141  0.000372  0.000167  0.008621     2.233
   1.06978  0.01766 -0.01815 -0.31463  0.000416  0.000183  0.009643     2.278
   1.07377  0.02129 -0.01981 -0.37912  0.000454  0.000200  0.010780     2.266
   1.07825  0.02543 -0.02154 -0.44067  0.000491  0.000216  0.011499     2.274
   1.08332  0.03017 -0.02333 -0.49862  0.000530  0.000232  0.011968     2.281
   1.08907  0.03561 -0.02519 -0.55291  0.000575  0.000251  0.012125     2.291
   1.09564  0.04190 -0.02708 -0.60268  0.000628  0.000272  0.011931     2.306
   1.10320  0.04922 -0.02900 -0.64703  0.000693  0.000298  0.011419     2.323
   1.11196  0.05776 -0.03093 -0.68385  0.000778  0.000331  0.010436     2.353
   1.12207  0.06768 -0.03288 -0.71735  0.000855  0.000364  0.009999     2.350
   1.13350  0.07895 -0.03481 -0.74956  0.000929  0.000396  0.009646     2.347
   1.14613  0.09144 -0.03664 -0.77685  0.001022  0.000431  0.008885     2.370
   1.15994  0.10515 -0.03835 -0.79827  0.001130  0.000472  0.008062     2.394
   1.17469  0.11981 -0.03996 -0.81915  0.001204  0.000507  0.007907     2.376
   1.18993  0.13498 -0.04141 -0.83846  0.001281  0.000539  0.007614     2.375
   1.20552  0.15051 -0.04267 -0.85504  0.001364  0.000572  0.007227     2.384
   1.22143  0.16639 -0.04375 -0.86829  0.001459  0.000607  0.006740     2.402
   1.23764  0.18258 -0.04467 -0.87970  0.001545  0.000641  0.006402     2.410
   1.25400  0.19892 -0.04546 -0.89085  0.001611  0.000671  0.006265     2.402
   1.27036  0.21526 -0.04609 -0.90137  0.001675  0.000699  0.006123     2.398
   1.28677  0.23166 -0.04656 -0.90978  0.001758  0.000729  0.005799     2.412
   1.30335  0.24824 -0.04689 -0.91679  0.001843  0.000760  0.005501     2.426
   1.32002  0.26491 -0.04711 -0.92380  0.001907  0.000787  0.005373     2.423
   1.33663  0.28153 -0.04721 -0.93075  0.001963  0.000812  0.005294     2.416
   1.35321  0.29810 -0.04717 -0.93639  0.002037  0.000840  0.005083     2.426
   1.36986  0.31475 -0.04699 -0.94117  0.002113  0.000867  0.004870     2.437
   1.38656  0.33145 -0.04670 -0.94564  0.002182  0.000894  0.004718     2.441
   1.40323  0.34811 -0.04629 -0.94970  0.002249  0.000920  0.004579     2.445
   1.41985  0.36473 -0.04576 -0.95311  0.002321  0.000946  0.004415     2.453
   1.43647  0.38133 -0.04510 -0.95579  0.002400  0.000973  0.004229     2.465
   1.45309  0.39793 -0.04431 -0.95770  0.002486  0.001002  0.004023     2.481
   1.46972  0.41453 -0.04339 -0.95889  0.002579  0.001032  0.003808     2.499
   1.48633  0.43111 -0.04234 -0.95951  0.002674  0.001062  0.003602     2.518
   1.50291  0.44765 -0.04116 -0.95933  0.002783  0.001095  0.003369     2.543
   1.51945  0.46414 -0.03985 -0.95827  0.002908  0.001129  0.003107     2.575
   1.53596  0.48059 -0.03840 -0.95620  0.003057  0.001167  0.002806     2.619
   1.55247  0.49701 -0.03680 -0.95282  0.003248  0.001211  0.002437     2.683
   1.56903  0.51348 -0.03504 -0.94829  0.003487  0.001259  0.002025     2.770
   1.58574  0.53008 -0.03313 -0.94279  0.003784  0.001312  0.001588     2.885
   1.60264  0.54687 -0.03109 -0.93687  0.004128  0.001367  0.001177     3.020
   1.61973  0.56382 -0.02896 -0.93095  0.004507  0.001421  0.000821     3.171
   1.63695  0.58089 -0.02675 -0.92525  0.004923  0.001475  0.000520     3.338
   1.65426  0.59806 -0.02449 -0.91994  0.005372  0.001526  0.000275     3.521
   1.67164  0.61529 -0.02221 -0.91510  0.005846  0.001573  0.000086     3.715
   1.68905  0.63255 -0.01994 -0.91072  0.006328  0.001618 -0.000050     3.911
   1.70644  0.64979 -0.01769 -0.90676  0.006820  0.001660 -0.000144     4.109
   1.72377  0.66698 -0.01547 -0.90314  0.007319  0.001700 -0.000207     4.306
   1.74101  0.68409 -0.01330 -0.89983  0.007812  0.001738 -0.000244     4.496
   1.75815  0.70109 -0.01119 -0.89682  0.008293  0.001774 -0.000265     4.676
   1.77520  0.71802 -0.00917 -0.89407  0.008745  0.001808 -0.000273     4.837
   1.79217  0.73488 -0.00723 -0.89154  0.009164  0.001841 -0.000276     4.978
   1.80907  0.75168 -0.00538 -0.88917  0.009542  0.001873 -0.000274     5.096
   1.82588  0.76841 -0.00365 -0.88696  0.009879  0.001903 -0.000270     5.190
   1.84259  0.78504 -0.00203 -0.88485  0.010154  0.001933 -0.000266     5.252
   1.85920  0.80157 -0.00054 -0.88282  0.010365  0.001963 -0.000262     5.280
   1.87568  0.81800  0.00080 -0.88085  0.010498  0.001993 -0.000257     5.268
   1.89204  0.83432  0.00198 -0.87890  0.010542  0.002022 -0.000253     5.214
   1.90829  0.85054  0.00299 -0.87696  0.010489  0.002052 -0.000247     5.113
   1.92442  0.86665  0.00381 -0.87501  0.010332  0.002081 -0.000239     4.964
   1.94041  0.88262  0.00443 -0.87305  0.010073  0.002111 -0.000224     4.771
   1.95619  0.89840  0.00486 -0.87109  0.009711  0.002141 -0.000197     4.536
   1.97170  0.91391  0.00506 -0.86917  0.009240  0.002169 -0.000145     4.259
   1.98685  0.92905  0.00502 -0.86733  0.008661  0.002197 -0.000047     3.943
   2.00150  0.94370  0.00473 -0.86596  0.007981  0.002217  0.000126     3.600
   2.01546  0.95766  0.00418 -0.86593  0.007221  0.002220  0.000404     3.253
   2.02853  0.97070  0.00337 -0.86845  0.006398  0.002193  0.000824     2.918
   2.04056  0.98268  0.00230 -0.87535  0.005514  0.002120  0.001454     2.601
   2.05143  0.99347  0.00100 -0.88962  0.004567  0.001986  0.002437     2.299
   2.05803  1.00000  0.00000 -0.89392  0.004399  0.001956  0.002663     2.249
   2.05803  1.00010 -0.00002  0.89392  0.034150  0.014915  0.000000     2.290
   2.06467  1.00659 -0.00141  0.89902  0.031512  0.014561  0.000000     2.164
   2.07243  1.01423 -0.00274  0.90151  0.030071  0.014396  0.000000     2.089
   2.08150  1.02320 -0.00412  0.90414  0.028679  0.014227  0.000000     2.016
   2.09210  1.03369 -0.00556  0.90706  0.027298  0.014046  0.000000     1.943
   2.10448  1.04599 -0.00708  0.91041  0.025904  0.013845  0.000000     1.871
   2.11896  1.06037 -0.00867  0.91428  0.024499  0.013622  0.000000     1.799
   2.13587  1.07721 -0.01033  0.91870  0.023097  0.013377  0.000000     1.727
   2.15564  1.09690 -0.01205  0.92366  0.021718  0.013114  0.000000     1.656
   2.17875  1.11994 -0.01381  0.92908  0.020387  0.012839  0.000000     1.588
   2.20575  1.14689 -0.01560  0.93485  0.019124  0.012560  0.000000     1.523
   2.23731  1.17840 -0.01736  0.94080  0.017947  0.012284  0.000000     1.461
   2.27420  1.21524 -0.01907  0.94677  0.016867  0.012020  0.000000     1.403
   2.31730  1.25832 -0.02065  0.95262  0.015890  0.011773  0.000000     1.350
   2.36768  1.30868 -0.02202  0.95823  0.015017  0.011546  0.000000     1.301
   2.42656  1.36755 -0.02308  0.96350  0.014244  0.011340  0.000000     1.256
   2.49537  1.43636 -0.02371  0.96839  0.013566  0.011156  0.000000     1.216
   2.57580  1.51678 -0.02374  0.97284  0.012976  0.010993  0.000000     1.180
   2.66978  1.61077 -0.02299  0.97686  0.012470  0.010851  0.000000     1.149
   2.77963  1.72060 -0.02121  0.98044  0.012041  0.010727  0.000000     1.122
   2.90801  1.84894 -0.01814  0.98357  0.011681  0.010621  0.000000     1.100
   3.05804  1.99890 -0.01343  0.98708  0.011355  0.010505  0.000000     1.081
