#    s        x        y     Ue/Vinf    Dstar     Theta      Cf       H
   0.00000  1.00000  0.00000  0.88775  0.028888  0.011622  0.000494     2.486
   0.00667  0.99364  0.00201  0.89497  0.026710  0.011210  0.000609     2.383
   0.01801  0.98283  0.00544  0.90537  0.024420  0.010658  0.000741     2.291
   0.03089  0.97055  0.00931  0.91807  0.022137  0.010039  0.000899     2.205
   0.04491  0.95712  0.01335  0.93213  0.020115  0.009415  0.001060     2.136
   0.05974  0.94286  0.01740  0.94659  0.018459  0.008828  0.001201     2.091
   0.07527  0.92786  0.02141  0.96078  0.017180  0.008298  0.001302     2.070
   0.09142  0.91220  0.02541  0.97469  0.016197  0.007815  0.001357     2.073
   0.10802  0.89609  0.02942  0.98852  0.015440  0.007367  0.001363     2.096
   0.12488  0.87971  0.03341  1.00239  0.014877  0.006945  0.001318     2.142
   0.14188  0.86318  0.03738  1.01656  0.014494  0.006539  0.001215     2.216
   0.15896  0.84656  0.04130  1.03149  0.014280  0.006136  0.001055     2.327
   0.17607  0.82989  0.04517  1.04788  0.014234  0.005717  0.000839     2.490
   0.19318  0.81321  0.04899  1.06683  0.014343  0.005258  0.000585     2.728
   0.21029  0.79652  0.05273  1.08983  0.014596  0.004733  0.000348     3.084
   0.22743  0.77978  0.05643  1.11876  0.014949  0.004111  0.000072     3.636
   0.24453  0.76308  0.06007  1.15614  0.015299  0.003366 -0.000168     4.545
   0.26151  0.74647  0.06361  1.19650  0.015590  0.002627 -0.000260     5.934
   0.27839  0.72994  0.06704  1.24059  0.015696  0.001890 -0.000338     8.303
   0.29522  0.71344  0.07036  1.25998  0.015657  0.001595 -0.000396     9.816
   0.31203  0.69694  0.07357  1.26123  0.015419  0.001579 -0.000400     9.768
   0.32881  0.68046  0.07667  1.26234  0.014956  0.001565 -0.000406     9.559
   0.34552  0.66401  0.07965  1.26340  0.014340  0.001552 -0.000412     9.241
   0.36216  0.64761  0.08250  1.26447  0.013624  0.001540 -0.000418     8.850
   0.37877  0.63123  0.08521  1.26560  0.012848  0.001527 -0.000426     8.413
   0.39539  0.61480  0.08779  1.26684  0.012032  0.001514 -0.000435     7.946
   0.41202  0.59836  0.09025  1.26824  0.011179  0.001500 -0.000447     7.451
   0.42857  0.58198  0.09257  1.26985  0.010309  0.001485 -0.000461     6.940
   0.44503  0.56566  0.09473  1.27176  0.009459  0.001468 -0.000480     6.442
   0.46148  0.54933  0.09674  1.27408  0.008650  0.001449 -0.000502     5.970
   0.47798  0.53293  0.09860  1.27690  0.007872  0.001427 -0.000522     5.516
   0.49446  0.51655  0.10033  1.28031  0.007117  0.001402 -0.000525     5.075
   0.51082  0.50026  0.10190  1.28440  0.006415  0.001374 -0.000487     4.668
   0.52710  0.48404  0.10328  1.28925  0.005795  0.001343 -0.000376     4.314
   0.54339  0.46779  0.10449  1.29475  0.005252  0.001310 -0.000179     4.009
   0.55971  0.45151  0.10554  1.30099  0.004767  0.001274  0.000114     3.743
   0.57600  0.43525  0.10643  1.30804  0.004331  0.001234  0.000507     3.509
   0.59218  0.41907  0.10713  1.31571  0.003956  0.001192  0.000967     3.318
   0.60829  0.40298  0.10765  1.32366  0.003644  0.001150  0.001451     3.169
   0.62434  0.38693  0.10796  1.33154  0.003386  0.001108  0.001922     3.057
   0.64042  0.37085  0.10808  1.33916  0.003169  0.001067  0.002376     2.970
   0.65651  0.35476  0.10800  1.34656  0.002974  0.001027  0.002843     2.896
   0.67249  0.33878  0.10774  1.35404  0.002774  0.000986  0.003438     2.813
   0.68825  0.32303  0.10727  1.36082  0.002595  0.000947  0.004066     2.740
   0.70393  0.30737  0.10654  1.36573  0.002470  0.000913  0.004478     2.705
   0.71975  0.29158  0.10557  1.36950  0.002376  0.000882  0.004730     2.694
   0.73559  0.27578  0.10439  1.37418  0.002250  0.000847  0.005257     2.655
   0.75115  0.26028  0.10302  1.37905  0.002099  0.000811  0.006101     2.589
   0.76650  0.24502  0.10139  1.38088  0.001996  0.000780  0.006648     2.559
   0.78192  0.22972  0.09944  1.38015  0.001938  0.000755  0.006779     2.567
   0.79744  0.21436  0.09725  1.38033  0.001858  0.000726  0.007133     2.559
   0.81279  0.19920  0.09484  1.38113  0.001751  0.000694  0.007878     2.523
   0.82793  0.18429  0.09217  1.37911  0.001675  0.000666  0.008300     2.515
   0.84302  0.16950  0.08922  1.37592  0.001612  0.000640  0.008558     2.520
   0.85806  0.15481  0.08599  1.37282  0.001544  0.000611  0.008865     2.525
   0.87291  0.14036  0.08253  1.37017  0.001462  0.000580  0.009413     2.519
   0.88737  0.12638  0.07886  1.36745  0.001358  0.000547  0.010504     2.483
   0.90140  0.11290  0.07496  1.36086  0.001278  0.000517  0.011274     2.469
   0.91519  0.09977  0.07076  1.35128  0.001235  0.000492  0.011053     2.513
   0.92848  0.08721  0.06643  1.34615  0.001147  0.000458  0.011958     2.505
   0.94079  0.07568  0.06209  1.34051  0.001017  0.000420  0.014710     2.418
   0.95221  0.06515  0.05767  1.32266  0.000962  0.000396  0.015216     2.426
   0.96284  0.05550  0.05322  1.30521  0.000927  0.000373  0.014691     2.483
   0.97241  0.04692  0.04898  1.29483  0.000851  0.000343  0.015864     2.483
   0.98081  0.03952  0.04501  1.28374  0.000768  0.000313  0.017954     2.455
   0.98816  0.03319  0.04127  1.26787  0.000694  0.000286  0.020206     2.426
   0.99463  0.02777  0.03774  1.24669  0.000635  0.000263  0.022049     2.411
   1.00034  0.02313  0.03441  1.22184  0.000581  0.000243  0.024042     2.394
   1.00542  0.01915  0.03125  1.19203  0.000528  0.000224  0.026576     2.363
   1.00996  0.01574  0.02825  1.15569  0.000493  0.000208  0.027489     2.367
   1.01405  0.01281  0.02541  1.11736  0.000450  0.000192  0.029827     2.341
   1.01775  0.01030  0.02269  1.07130  0.000417  0.000179  0.031293     2.328
   1.02112  0.00816  0.02007  1.01946  0.000387  0.000167  0.032385     2.318
   1.02423  0.00634  0.01756  0.96035  0.000357  0.000156  0.033941     2.291
   1.02710  0.00481  0.01513  0.89206  0.000337  0.000147  0.033560     2.287
   1.02975  0.00353  0.01281  0.81821  0.000316  0.000139  0.033459     2.266
   1.03221  0.00250  0.01057  0.73747  0.000302  0.000133  0.031562     2.264
   1.03452  0.00166  0.00842  0.65435  0.000288  0.000127  0.029345     2.265
   1.03670  0.00100  0.00634  0.56395  0.000272  0.000122  0.027546     2.233
   1.03878  0.00049  0.00433  0.47060  0.000267  0.000117  0.022338     2.286
   1.04077  0.00014  0.00237  0.37247  0.000236  0.000105  0.020818     2.242
   1.04268 -0.00001  0.00047  0.25090  0.000221  0.000098  0.014862     2.249
   1.04452  0.00009 -0.00138  0.11099  0.000202  0.000091  0.007312     2.230
   1.04638  0.00049 -0.00318 -0.04770  0.000202  0.000091  0.003143     2.230
   1.04830  0.00119 -0.00498 -0.19690  0.000219  0.000098  0.011896     2.239
   1.05035  0.00220 -0.00676 -0.33719  0.000228  0.000102  0.019591     2.235
   1.05254  0.00351 -0.00851 -0.45665  0.000257  0.000113  0.022721     2.277
   1.05487  0.00512 -0.01021 -0.55344  0.000284  0.000125  0.025014     2.273
   1.05738  0.00701 -0.01184 -0.63158  0.000320  0.000139  0.024571     2.304
   1.06008  0.00920 -0.01343 -0.68576  0.000372  0.000158  0.021942     2.350
   1.06301  0.01168 -0.01499 -0.73349  0.000404  0.000174  0.022304     2.318
   1.06622  0.01448 -0.01656 -0.77395  0.000451  0.000192  0.020428     2.351
   1.06978  0.01766 -0.01815 -0.80632  0.000502  0.000212  0.018792     2.369
   1.07377  0.02129 -0.01981 -0.83818  0.000540  0.000230  0.018479     2.352
   1.07825  0.02543 -0.02154 -0.86880  0.000584  0.000248  0.017609     2.357
   1.08332  0.03017 -0.02333 -0.89838  0.000628  0.000266  0.016935     2.357
   1.08907  0.03561 -0.02519 -0.92712  0.000674  0.000286  0.016235     2.360
   1.09564  0.04190 -0.02708 -0.95183  0.000738  0.000309  0.014845     2.386
   1.10320  0.04922 -0.02900 -0.97055  0.000821  0.000339  0.013121     2.423
   1.11196  0.05776 -0.03093 -0.98356  0.000919  0.000374  0.011427     2.460
   1.12207  0.06768 -0.03288 -0.99365  0.001020  0.000412  0.010237     2.476
   1.13350  0.07895 -0.03481 -1.00434  0.001104  0.000448  0.009689     2.462
   1.14613  0.09144 -0.03664 -1.01222  0.001215  0.000489  0.008676     2.484
   1.15994  0.10515 -0.03835 -1.01652  0.001343  0.000534  0.007617     2.516
   1.17469  0.11981 -0.03996 -1.02208  0.001431  0.000573  0.007330     2.497
   1.18993  0.13498 -0.04141 -1.02790  0.001517  0.000610  0.007032     2.487
   1.20552  0.15051 -0.04267 -1.03274  0.001612  0.000647  0.006622     2.491
   1.22143  0.16639 -0.04375 -1.03585  0.001719  0.000685  0.006115     2.508
   1.23764  0.18258 -0.04467 -1.03825  0.001819  0.000723  0.005731     2.518
   1.25400  0.19892 -0.04546 -1.04065  0.001907  0.000757  0.005484     2.517
   1.27036  0.21526 -0.04609 -1.04385  0.001971  0.000788  0.005403     2.503
   1.28677  0.23166 -0.04656 -1.04508  0.002076  0.000823  0.005025     2.524
   1.30335  0.24824 -0.04689 -1.04599  0.002171  0.000856  0.004749     2.535
   1.32002  0.26491 -0.04711 -1.04697  0.002253  0.000888  0.004568     2.537
   1.33663  0.28153 -0.04721 -1.04828  0.002322  0.000917  0.004464     2.532
   1.35321  0.29810 -0.04717 -1.04865  0.002413  0.000948  0.004242     2.544
   1.36986  0.31475 -0.04699 -1.04837  0.002511  0.000981  0.004000     2.561
   1.38656  0.33145 -0.04670 -1.04789  0.002605  0.001013  0.003801     2.573
   1.40323  0.34811 -0.04629 -1.04722  0.002697  0.001044  0.003624     2.584
   1.41985  0.36473 -0.04576 -1.04600  0.002800  0.001076  0.003418     2.602
   1.43647  0.38133 -0.04510 -1.04399  0.002922  0.001111  0.003162     2.630
   1.45309  0.39793 -0.04431 -1.04127  0.003061  0.001148  0.002881     2.667
   1.46972  0.41453 -0.04339 -1.03789  0.003218  0.001186  0.002586     2.712
   1.48633  0.43111 -0.04234 -1.03377  0.003402  0.001228  0.002264     2.770
   1.50291  0.44765 -0.04116 -1.02890  0.003622  0.001273  0.001910     2.847
   1.51945  0.46414 -0.03985 -1.02320  0.003905  0.001321  0.001505     2.955
   1.53596  0.48059 -0.03840 -1.01698  0.004261  0.001373  0.001074     3.104
   1.55247  0.49701 -0.03680 -1.01056  0.004730  0.001426  0.000621     3.318
   1.56903  0.51348 -0.03504 -1.00461  0.005331  0.001476  0.000205     3.613
   1.58574  0.53008 -0.03313 -0.99961  0.006072  0.001519 -0.000112     3.996
   1.60264  0.54687 -0.03109 -0.99542  0.006933  0.001558 -0.000290     4.451
   1.61973  0.56382 -0.02896 -0.99193  0.007883  0.001592 -0.000353     4.952
   1.63695  0.58089 -0.02675 -0.98916  0.008904  0.001621 -0.000356     5.492
   1.65426  0.59806 -0.02449 -0.98698  0.009972  0.001646 -0.000340     6.058
   1.67164  0.61529 -0.02221 -0.98523  0.011057  0.001668 -0.000324     6.630
   1.68905  0.63255 -0.01994 -0.98379  0.012133  0.001687 -0.000311     7.194
   1.70644  0.64979 -0.01769 -0.98258  0.013185  0.001704 -0.000302     7.739
   1.72377  0.66698 -0.01547 -0.98153  0.014197  0.001719 -0.000295     8.257
   1.74101  0.68409 -0.01330 -0.98060  0.015152  0.001734 -0.000289     8.738
   1.75815  0.70109 -0.01119 -0.97974  0.016029  0.001748 -0.000284     9.170
   1.77520  0.71802 -0.00917 -0.97891  0.016809  0.001762 -0.000279     9.538
   1.79217  0.73488 -0.00723 -0.97810  0.017481  0.001777 -0.000276     9.836
   1.80907  0.75168 -0.00538 -0.97727  0.018027  0.001793 -0.000272    10.056
   1.82588  0.76841 -0.00365 -0.97643  0.018438  0.001809 -0.000269    10.191
   1.84259  0.78504 -0.00203 -0.97553  0.018682  0.001827 -0.000266    10.224
   1.85920  0.80157 -0.00054 -0.97456  0.018742  0.001847 -0.000263    10.147
   1.87568  0.81800  0.00080 -0.97350  0.018578  0.001869 -0.000260     9.938
   1.89204  0.83432  0.00198 -0.97228  0.018140  0.001895 -0.000258     9.574
   1.90829  0.85054  0.00299 -0.96405  0.017424  0.002078 -0.000204     8.385
   1.92442  0.86665  0.00381 -0.93324  0.016546  0.002795 -0.000187     5.920
   1.94041  0.88262  0.00443 -0.90296  0.015398  0.003535 -0.000106     4.356
   1.95619  0.89840  0.00486 -0.87747  0.014101  0.004181  0.000158     3.372
   1.97170  0.91391  0.00506 -0.86012  0.012764  0.004630  0.000510     2.757
   1.98685  0.92905  0.00502 -0.85002  0.011479  0.004893  0.000886     2.346
   2.00150  0.94370  0.00473 -0.84629  0.010294  0.004995  0.001295     2.061
   2.01546  0.95766  0.00418 -0.84810  0.009220  0.004968  0.001826     1.856
   2.02853  0.97070  0.00337 -0.85502  0.008235  0.004837  0.002404     1.703
   2.04056  0.98268  0.00230 -0.86758  0.007288  0.004608  0.003055     1.582
   2.05143  0.99347  0.00100 -0.88792  0.006315  0.004269  0.003857     1.479
   2.05803  1.00000  0.00000 -0.88775  0.006258  0.004289  0.003977     1.459
   2.05803  1.00010 -0.00002  0.88775  0.035146  0.015911  0.000000     2.209
   2.06467  1.00659 -0.00142  0.89338  0.032106  0.015500  0.000000     2.071
   2.07243  1.01422 -0.00279  0.89579  0.030453  0.015333  0.000000     1.986
   2.08150  1.02318 -0.00424  0.89844  0.028847  0.015155  0.000000     1.903
   2.09210  1.03366 -0.00578  0.90153  0.027255  0.014956  0.000000     1.822
   2.10448  1.04593 -0.00743  0.90526  0.025654  0.014724  0.000000     1.742
   2.11896  1.06030 -0.00921  0.90975  0.024054  0.014457  0.000000     1.664
   2.13587  1.07711 -0.01112  0.91503  0.022482  0.014156  0.000000     1.588
   2.15564  1.09677 -0.01317  0.92104  0.020967  0.013831  0.000000     1.516
   2.17875  1.11977 -0.01537  0.92763  0.019541  0.013492  0.000000     1.448
   2.20575  1.14667 -0.01771  0.93458  0.018229  0.013153  0.000000     1.386
   2.23731  1.17814 -0.02019  0.94164  0.017045  0.012825  0.000000     1.329
   2.27420  1.21493 -0.02281  0.94857  0.015997  0.012518  0.000000     1.278
   2.31730  1.25795 -0.02555  0.95518  0.015082  0.012238  0.000000     1.232
   2.36768  1.30825 -0.02839  0.96134  0.014292  0.011988  0.000000     1.192
   2.42656  1.36705 -0.03129  0.96698  0.013618  0.011767  0.000000     1.157
   2.49537  1.43580 -0.03423  0.97207  0.013049  0.011575  0.000000     1.127
   2.57580  1.51617 -0.03715  0.97659  0.012575  0.011409  0.000000     1.102
   2.66978  1.61012 -0.03999  0.98056  0.012185  0.011267  0.000000     1.081
   2.77963  1.71993 -0.04265  0.98399  0.011868  0.011147  0.000000     1.065
   2.90801  1.84829 -0.04506  0.98691  0.011612  0.011046  0.000000     1.051
   3.05804  1.99831 -0.04708  0.98991  0.011390  0.010945  0.000000     1.041
