#    s        x        y     Ue/Vinf    Dstar     Theta      Cf       H
   0.00000  1.00000  0.00000  0.88180  0.028163  0.012099  0.000637     2.328
   0.00667  0.99364  0.00201  0.89000  0.025954  0.011626  0.000774     2.232
   0.01801  0.98283  0.00544  0.90153  0.023595  0.011011  0.000939     2.143
   0.03089  0.97055  0.00931  0.91557  0.021245  0.010327  0.001140     2.057
   0.04491  0.95712  0.01335  0.93102  0.019161  0.009645  0.001352     1.987
   0.05974  0.94286  0.01740  0.94679  0.017442  0.009013  0.001551     1.935
   0.07527  0.92786  0.02141  0.96203  0.016096  0.008453  0.001715     1.904
   0.09142  0.91220  0.02541  0.97672  0.015033  0.007953  0.001839     1.890
   0.10802  0.89609  0.02942  0.99103  0.014180  0.007500  0.001920     1.891
   0.12488  0.87971  0.03341  1.00500  0.013500  0.007086  0.001956     1.905
   0.14188  0.86318  0.03738  1.01870  0.012976  0.006704  0.001938     1.936
   0.15896  0.84656  0.04130  1.03229  0.012597  0.006346  0.001860     1.985
   0.17607  0.82989  0.04517  1.04603  0.012361  0.006004  0.001713     2.059
   0.19318  0.81321  0.04899  1.06043  0.012269  0.005664  0.001494     2.166
   0.21029  0.79652  0.05273  1.07629  0.012330  0.005308  0.001203     2.323
   0.22743  0.77978  0.05643  1.09498  0.012541  0.004911  0.000855     2.554
   0.24453  0.76308  0.06007  1.11835  0.012872  0.004440  0.000542     2.899
   0.26151  0.74647  0.06361  1.14842  0.013310  0.003869  0.000181     3.441
   0.27839  0.72994  0.06704  1.18837  0.013792  0.003162 -0.000156     4.362
   0.29522  0.71344  0.07036  1.23418  0.014213  0.002417 -0.000293     5.881
   0.31203  0.69694  0.07357  1.28413  0.014410  0.001677 -0.000362     8.594
   0.32881  0.68046  0.07667  1.29199  0.014458  0.001571 -0.000416     9.204
   0.34552  0.66401  0.07965  1.29340  0.014235  0.001554 -0.000421     9.161
   0.36216  0.64761  0.08250  1.29469  0.013810  0.001539 -0.000427     8.974
   0.37877  0.63123  0.08521  1.29596  0.013259  0.001525 -0.000434     8.695
   0.39539  0.61480  0.08779  1.29725  0.012615  0.001511 -0.000442     8.348
   0.41202  0.59836  0.09025  1.29860  0.011891  0.001497 -0.000451     7.941
   0.42857  0.58198  0.09257  1.30007  0.011112  0.001483 -0.000463     7.492
   0.44503  0.56566  0.09473  1.30174  0.010321  0.001468 -0.000477     7.031
   0.46148  0.54933  0.09674  1.30369  0.009541  0.001451 -0.000494     6.575
   0.47798  0.53293  0.09860  1.30600  0.008768  0.001432 -0.000515     6.122
   0.49446  0.51655  0.10033  1.30873  0.007993  0.001411 -0.000539     5.664
   0.51082  0.50026  0.10190  1.31201  0.007249  0.001388 -0.000549     5.223
   0.52710  0.48404  0.10328  1.31597  0.006577  0.001361 -0.000533     4.831
   0.54339  0.46779  0.10449  1.32067  0.005963  0.001332 -0.000460     4.477
   0.55971  0.45151  0.10554  1.32609  0.005405  0.001300 -0.000305     4.159
   0.57600  0.43525  0.10643  1.33219  0.004888  0.001265 -0.000038     3.864
   0.59218  0.41907  0.10713  1.33909  0.004434  0.001228  0.000330     3.612
   0.60829  0.40298  0.10765  1.34670  0.004048  0.001187  0.000766     3.409
   0.62434  0.38693  0.10796  1.35473  0.003726  0.001146  0.001231     3.251
   0.64042  0.37085  0.10808  1.36290  0.003457  0.001105  0.001697     3.129
   0.65651  0.35476  0.10800  1.37115  0.003215  0.001063  0.002200     3.024
   0.67249  0.33878  0.10774  1.37949  0.002983  0.001021  0.002798     2.921
   0.68825  0.32303  0.10727  1.38744  0.002773  0.000980  0.003449     2.829
   0.70393  0.30737  0.10654  1.39376  0.002626  0.000944  0.003902     2.781
   0.71975  0.29158  0.10557  1.39900  0.002516  0.000911  0.004196     2.761
   0.73559  0.27578  0.10439  1.40505  0.002374  0.000875  0.004744     2.713
   0.75115  0.26028  0.10302  1.41132  0.002211  0.000837  0.005587     2.641
   0.76650  0.24502  0.10139  1.41474  0.002100  0.000805  0.006132     2.607
   0.78192  0.22972  0.09944  1.41592  0.002032  0.000778  0.006314     2.611
   0.79744  0.21436  0.09725  1.41780  0.001947  0.000749  0.006670     2.601
   0.81279  0.19920  0.09484  1.42032  0.001837  0.000716  0.007371     2.566
   0.82793  0.18429  0.09217  1.42063  0.001753  0.000687  0.007846     2.552
   0.84302  0.16950  0.08922  1.41952  0.001688  0.000659  0.008074     2.560
   0.85806  0.15481  0.08599  1.41887  0.001615  0.000630  0.008395     2.564
   0.87291  0.14036  0.08253  1.41874  0.001529  0.000598  0.008935     2.557
   0.88737  0.12638  0.07886  1.41897  0.001419  0.000564  0.010054     2.518
   0.90140  0.11290  0.07496  1.41544  0.001338  0.000533  0.010745     2.508
   0.91519  0.09977  0.07076  1.40967  0.001291  0.000506  0.010587     2.551
   0.92848  0.08721  0.06643  1.40826  0.001197  0.000471  0.011544     2.540
   0.94079  0.07568  0.06209  1.40683  0.001062  0.000433  0.014322     2.449
   0.95221  0.06515  0.05767  1.39377  0.001007  0.000409  0.014723     2.464
   0.96284  0.05550  0.05322  1.38179  0.000969  0.000384  0.014222     2.525
   0.97241  0.04692  0.04898  1.37689  0.000891  0.000353  0.015373     2.527
   0.98081  0.03952  0.04501  1.37202  0.000801  0.000321  0.017687     2.492
   0.98816  0.03319  0.04127  1.36235  0.000723  0.000294  0.020103     2.461
   0.99463  0.02777  0.03774  1.34765  0.000660  0.000270  0.022285     2.440
   1.00034  0.02313  0.03441  1.32905  0.000604  0.000249  0.024336     2.426
   1.00542  0.01915  0.03125  1.30670  0.000548  0.000229  0.027299     2.391
   1.00996  0.01574  0.02825  1.27755  0.000509  0.000213  0.028736     2.391
   1.01405  0.01281  0.02541  1.24642  0.000467  0.000197  0.031078     2.374
   1.01775  0.01030  0.02269  1.20868  0.000425  0.000182  0.034385     2.335
   1.02112  0.00816  0.02007  1.16093  0.000398  0.000171  0.035525     2.329
   1.02423  0.00634  0.01756  1.10858  0.000370  0.000160  0.037044     2.313
   1.02710  0.00481  0.01513  1.04938  0.000346  0.000150  0.037869     2.301
   1.02975  0.00353  0.01281  0.98292  0.000323  0.000142  0.038911     2.275
   1.03221  0.00250  0.01057  0.90823  0.000309  0.000136  0.037726     2.271
   1.03452  0.00166  0.00842  0.83013  0.000296  0.000131  0.036406     2.261
   1.03670  0.00100  0.00634  0.74924  0.000285  0.000126  0.033601     2.274
   1.03878  0.00049  0.00433  0.66698  0.000268  0.000118  0.031834     2.274
   1.04077  0.00014  0.00237  0.57714  0.000248  0.000109  0.029642     2.280
   1.04268 -0.00001  0.00047  0.47261  0.000222  0.000098  0.027413     2.268
   1.04452  0.00009 -0.00138  0.33743  0.000202  0.000091  0.022237     2.230
   1.04638  0.00049 -0.00318  0.17934  0.000205  0.000092  0.011724     2.226
   1.04830  0.00119 -0.00498  0.02436  0.000217  0.000097  0.001497     2.230
   1.05035  0.00220 -0.00676 -0.12861  0.000217  0.000097  0.007907     2.230
   1.05254  0.00351 -0.00851 -0.26247  0.000250  0.000110  0.013590     2.264
   1.05487  0.00512 -0.01021 -0.36945  0.000278  0.000123  0.017327     2.254
   1.05738  0.00701 -0.01184 -0.46359  0.000303  0.000134  0.019751     2.265
   1.06008  0.00920 -0.01343 -0.53171  0.000357  0.000153  0.018155     2.328
   1.06301  0.01168 -0.01499 -0.59102  0.000383  0.000168  0.019605     2.282
   1.06622  0.01448 -0.01656 -0.64159  0.000431  0.000185  0.018116     2.328
   1.06978  0.01766 -0.01815 -0.68453  0.000473  0.000203  0.017645     2.327
   1.07377  0.02129 -0.01981 -0.72376  0.000517  0.000222  0.016947     2.334
   1.07825  0.02543 -0.02154 -0.76319  0.000551  0.000238  0.016985     2.320
   1.08332  0.03017 -0.02333 -0.80002  0.000598  0.000256  0.016155     2.336
   1.08907  0.03561 -0.02519 -0.83481  0.000644  0.000275  0.015601     2.340
   1.09564  0.04190 -0.02708 -0.86569  0.000705  0.000298  0.014482     2.362
   1.10320  0.04922 -0.02900 -0.89053  0.000783  0.000327  0.012993     2.394
   1.11196  0.05776 -0.03093 -0.90984  0.000874  0.000361  0.011556     2.422
   1.12207  0.06768 -0.03288 -0.92545  0.000971  0.000398  0.010394     2.440
   1.13350  0.07895 -0.03481 -0.94177  0.001048  0.000433  0.009977     2.422
   1.14613  0.09144 -0.03664 -0.95417  0.001158  0.000472  0.008885     2.451
   1.15994  0.10515 -0.03835 -0.96276  0.001277  0.000516  0.007912     2.476
   1.17469  0.11981 -0.03996 -0.97231  0.001360  0.000554  0.007660     2.457
   1.18993  0.13498 -0.04141 -0.98163  0.001443  0.000589  0.007345     2.449
   1.20552  0.15051 -0.04267 -0.98930  0.001536  0.000625  0.006893     2.457
   1.22143  0.16639 -0.04375 -0.99475  0.001642  0.000663  0.006358     2.477
   1.23764  0.18258 -0.04467 -0.99953  0.001734  0.000699  0.006012     2.482
   1.25400  0.19892 -0.04546 -1.00417  0.001815  0.000732  0.005786     2.480
   1.27036  0.21526 -0.04609 -1.00907  0.001882  0.000762  0.005662     2.470
   1.28677  0.23166 -0.04656 -1.01232  0.001975  0.000795  0.005328     2.485
   1.30335  0.24824 -0.04689 -1.01466  0.002071  0.000828  0.005014     2.500
   1.32002  0.26491 -0.04711 -1.01732  0.002144  0.000858  0.004865     2.499
   1.33663  0.28153 -0.04721 -1.01990  0.002213  0.000887  0.004738     2.496
   1.35321  0.29810 -0.04717 -1.02171  0.002295  0.000916  0.004535     2.505
   1.36986  0.31475 -0.04699 -1.02268  0.002388  0.000947  0.004290     2.520
   1.38656  0.33145 -0.04670 -1.02344  0.002474  0.000978  0.004098     2.530
   1.40323  0.34811 -0.04629 -1.02399  0.002556  0.001007  0.003935     2.538
   1.41985  0.36473 -0.04576 -1.02399  0.002647  0.001038  0.003743     2.552
   1.43647  0.38133 -0.04510 -1.02320  0.002754  0.001070  0.003507     2.574
   1.45309  0.39793 -0.04431 -1.02168  0.002874  0.001104  0.003249     2.603
   1.46972  0.41453 -0.04339 -1.01951  0.003006  0.001140  0.002981     2.636
   1.48633  0.43111 -0.04234 -1.01658  0.003157  0.001178  0.002689     2.679
   1.50291  0.44765 -0.04116 -1.01283  0.003336  0.001220  0.002366     2.735
   1.51945  0.46414 -0.03985 -1.00817  0.003555  0.001265  0.001999     2.812
   1.53596  0.48059 -0.03840 -1.00264  0.003833  0.001314  0.001589     2.918
   1.55247  0.49701 -0.03680 -0.99633  0.004201  0.001367  0.001127     3.073
   1.56903  0.51348 -0.03504 -0.98982  0.004678  0.001422  0.000656     3.290
   1.58574  0.53008 -0.03313 -0.98377  0.005278  0.001474  0.000235     3.581
   1.60264  0.54687 -0.03109 -0.97864  0.005994  0.001519 -0.000078     3.945
   1.61973  0.56382 -0.02896 -0.97435  0.006796  0.001559 -0.000259     4.358
   1.63695  0.58089 -0.02675 -0.97068  0.007675  0.001596 -0.000334     4.809
   1.65426  0.59806 -0.02449 -0.96768  0.008608  0.001628 -0.000346     5.288
   1.67164  0.61529 -0.02221 -0.96525  0.009572  0.001656 -0.000337     5.781
   1.68905  0.63255 -0.01994 -0.96326  0.010542  0.001680 -0.000321     6.274
   1.70644  0.64979 -0.01769 -0.96159  0.011504  0.001702 -0.000308     6.758
   1.72377  0.66698 -0.01547 -0.96017  0.012446  0.001722 -0.000297     7.226
   1.74101  0.68409 -0.01330 -0.95893  0.013349  0.001741 -0.000289     7.669
   1.75815  0.70109 -0.01119 -0.95782  0.014197  0.001758 -0.000282     8.076
   1.77520  0.71802 -0.00917 -0.95679  0.014970  0.001775 -0.000277     8.434
   1.79217  0.73488 -0.00723 -0.95581  0.015659  0.001792 -0.000272     8.740
   1.80907  0.75168 -0.00538 -0.95485  0.016250  0.001809 -0.000268     8.984
   1.82588  0.76841 -0.00365 -0.95391  0.016736  0.001826 -0.000264     9.164
   1.84259  0.78504 -0.00203 -0.95294  0.017092  0.001845 -0.000261     9.266
   1.85920  0.80157 -0.00054 -0.95194  0.017309  0.001864 -0.000258     9.285
   1.87568  0.81800  0.00080 -0.95089  0.017359  0.001885 -0.000255     9.208
   1.89204  0.83432  0.00198 -0.94975  0.017222  0.001908 -0.000253     9.025
   1.90829  0.85054  0.00299 -0.94849  0.016863  0.001934 -0.000250     8.721
   1.92442  0.86665  0.00381 -0.94708  0.016237  0.001962 -0.000249     8.277
   1.94041  0.88262  0.00443 -0.93710  0.015364  0.002171 -0.000192     7.077
   1.95619  0.89840  0.00486 -0.90875  0.014302  0.002783 -0.000165     5.139
   1.97170  0.91391  0.00506 -0.88042  0.013020  0.003415  0.000006     3.812
   1.98685  0.92905  0.00502 -0.86088  0.011627  0.003858  0.000388     3.013
   2.00150  0.94370  0.00473 -0.84924  0.010255  0.004122  0.000859     2.488
   2.01546  0.95766  0.00418 -0.84554  0.008981  0.004212  0.001367     2.132
   2.02853  0.97070  0.00337 -0.84916  0.007823  0.004155  0.001915     1.883
   2.04056  0.98268  0.00230 -0.86024  0.006747  0.003974  0.002631     1.698
   2.05143  0.99347  0.00100 -0.88044  0.005691  0.003674  0.003587     1.549
   2.05803  1.00000  0.00000 -0.88180  0.005561  0.003670  0.003800     1.515
   2.05803  1.00010 -0.00002  0.88180  0.033724  0.015770  0.000000     2.139
   2.06467  1.00659 -0.00142  0.88846  0.030745  0.015293  0.000000     2.010
   2.07243  1.01423 -0.00278  0.89161  0.029121  0.015080  0.000000     1.931
   2.08150  1.02318 -0.00421  0.89499  0.027558  0.014860  0.000000     1.855
   2.09210  1.03367 -0.00572  0.89878  0.026021  0.014622  0.000000     1.780
   2.10448  1.04595 -0.00734  0.90317  0.024490  0.014358  0.000000     1.706
   2.11896  1.06032 -0.00907  0.90825  0.022975  0.014066  0.000000     1.633
   2.13587  1.07713 -0.01092  0.91401  0.021498  0.013749  0.000000     1.564
   2.15564  1.09681 -0.01289  0.92036  0.020083  0.013417  0.000000     1.497
   2.17875  1.11982 -0.01498  0.92717  0.018757  0.013079  0.000000     1.434
   2.20575  1.14673 -0.01718  0.93421  0.017538  0.012746  0.000000     1.376
   2.23731  1.17821 -0.01948  0.94127  0.016438  0.012429  0.000000     1.323
   2.27420  1.21501 -0.02187  0.94815  0.015461  0.012134  0.000000     1.274
   2.31730  1.25805 -0.02432  0.95469  0.014604  0.011866  0.000000     1.231
   2.36768  1.30837 -0.02678  0.96078  0.013860  0.011626  0.000000     1.192
   2.42656  1.36720 -0.02923  0.96635  0.013221  0.011415  0.000000     1.158
   2.49537  1.43597 -0.03158  0.97140  0.012678  0.011230  0.000000     1.129
   2.57580  1.51636 -0.03378  0.97590  0.012223  0.011069  0.000000     1.104
   2.66978  1.61033 -0.03570  0.97987  0.011845  0.010931  0.000000     1.084
   2.77963  1.72017 -0.03725  0.98333  0.011535  0.010813  0.000000     1.067
   2.90801  1.84854 -0.03827  0.98629  0.011284  0.010714  0.000000     1.053
   3.05804  1.99857 -0.03860  0.98933  0.011065  0.010614  0.000000     1.042
