#    s        x        y     Ue/Vinf    Dstar     Theta      Cf       H
   0.00000  1.00000  0.00000  0.88659  0.028327  0.011480  0.000512     2.468
   0.00667  0.99364  0.00201  0.89406  0.026173  0.011060  0.000629     2.366
   0.01801  0.98283  0.00544  0.90473  0.023922  0.010502  0.000762     2.278
   0.03089  0.97055  0.00931  0.91769  0.021689  0.009882  0.000919     2.195
   0.04491  0.95712  0.01335  0.93196  0.019725  0.009259  0.001077     2.130
   0.05974  0.94286  0.01740  0.94655  0.018132  0.008678  0.001211     2.090
   0.07527  0.92786  0.02141  0.96079  0.016919  0.008154  0.001300     2.075
   0.09142  0.91220  0.02541  0.97473  0.016004  0.007678  0.001338     2.084
   0.10802  0.89609  0.02942  0.98859  0.015318  0.007235  0.001324     2.117
   0.12488  0.87971  0.03341  1.00258  0.014829  0.006815  0.001253     2.176
   0.14188  0.86318  0.03738  1.01706  0.014526  0.006405  0.001123     2.268
   0.15896  0.84656  0.04130  1.03264  0.014396  0.005989  0.000935     2.404
   0.17607  0.82989  0.04517  1.05022  0.014437  0.005544  0.000696     2.604
   0.19318  0.81321  0.04899  1.07115  0.014631  0.005044  0.000456     2.901
   0.21029  0.79652  0.05273  1.09719  0.014955  0.004457  0.000195     3.355
   0.22743  0.77978  0.05643  1.13108  0.015340  0.003745 -0.000077     4.096
   0.24453  0.76308  0.06007  1.17094  0.015681  0.002972 -0.000229     5.277
   0.26151  0.74647  0.06361  1.21386  0.015885  0.002211 -0.000293     7.184
   0.27839  0.72994  0.06704  1.25129  0.015876  0.001612 -0.000389     9.848
   0.29522  0.71344  0.07036  1.25258  0.015752  0.001595 -0.000393     9.878
   0.31203  0.69694  0.07357  1.25371  0.015366  0.001580 -0.000398     9.726
   0.32881  0.68046  0.07667  1.25476  0.014800  0.001567 -0.000403     9.447
   0.34552  0.66401  0.07965  1.25579  0.014112  0.001555 -0.000410     9.078
   0.36216  0.64761  0.08250  1.25685  0.013343  0.001542 -0.000417     8.651
   0.37877  0.63123  0.08521  1.25800  0.012530  0.001530 -0.000425     8.190
   0.39539  0.61480  0.08779  1.25929  0.011688  0.001517 -0.000435     7.706
   0.41202  0.59836  0.09025  1.26077  0.010821  0.001502 -0.000448     7.203
   0.42857  0.58198  0.09257  1.26249  0.009946  0.001486 -0.000464     6.691
   0.44503  0.56566  0.09473  1.26456  0.009098  0.001468 -0.000484     6.196
   0.46148  0.54933  0.09674  1.26708  0.008301  0.001448 -0.000507     5.733
   0.47798  0.53293  0.09860  1.27015  0.007541  0.001424 -0.000519     5.294
   0.49446  0.51655  0.10033  1.27385  0.006807  0.001398 -0.000508     4.869
   0.51082  0.50026  0.10190  1.27827  0.006132  0.001368 -0.000435     4.481
   0.52710  0.48404  0.10328  1.28339  0.005539  0.001336 -0.000278     4.146
   0.54339  0.46779  0.10449  1.28917  0.005031  0.001301 -0.000038     3.866
   0.55971  0.45151  0.10554  1.29572  0.004576  0.001263  0.000295     3.622
   0.57600  0.43525  0.10643  1.30303  0.004168  0.001223  0.000719     3.409
   0.59218  0.41907  0.10713  1.31079  0.003824  0.001180  0.001186     3.241
   0.60829  0.40298  0.10765  1.31869  0.003534  0.001137  0.001671     3.107
   0.62434  0.38693  0.10796  1.32637  0.003296  0.001096  0.002134     3.007
   0.64042  0.37085  0.10808  1.33373  0.003092  0.001056  0.002581     2.929
   0.65651  0.35476  0.10800  1.34080  0.002909  0.001016  0.003037     2.862
   0.67249  0.33878  0.10774  1.34791  0.002720  0.000976  0.003620     2.786
   0.68825  0.32303  0.10727  1.35432  0.002548  0.000938  0.004241     2.717
   0.70393  0.30737  0.10654  1.35878  0.002429  0.000905  0.004640     2.685
   0.71975  0.29158  0.10557  1.36208  0.002341  0.000874  0.004872     2.678
   0.73559  0.27578  0.10439  1.36637  0.002217  0.000840  0.005392     2.641
   0.75115  0.26028  0.10302  1.37089  0.002069  0.000803  0.006248     2.576
   0.76650  0.24502  0.10139  1.37222  0.001968  0.000773  0.006795     2.546
   0.78192  0.22972  0.09944  1.37090  0.001913  0.000748  0.006904     2.556
   0.79744  0.21436  0.09725  1.37068  0.001832  0.000720  0.007284     2.547
   0.81279  0.19920  0.09484  1.37069  0.001731  0.000688  0.007975     2.516
   0.82793  0.18429  0.09217  1.36829  0.001654  0.000661  0.008436     2.504
   0.84302  0.16950  0.08922  1.36442  0.001592  0.000634  0.008691     2.510
   0.85806  0.15481  0.08599  1.36059  0.001525  0.000606  0.008987     2.516
   0.87291  0.14036  0.08253  1.35713  0.001447  0.000576  0.009487     2.512
   0.88737  0.12638  0.07886  1.35397  0.001339  0.000542  0.010686     2.470
   0.90140  0.11290  0.07496  1.34608  0.001263  0.000513  0.011393     2.460
   0.91519  0.09977  0.07076  1.33546  0.001223  0.000488  0.011108     2.507
   0.92848  0.08721  0.06643  1.32965  0.001132  0.000454  0.012102     2.495
   0.94079  0.07568  0.06209  1.32254  0.001007  0.000417  0.014736     2.413
   0.95221  0.06515  0.05767  1.30369  0.000950  0.000393  0.015341     2.416
   0.96284  0.05550  0.05322  1.28463  0.000914  0.000370  0.014861     2.470
   0.97241  0.04692  0.04898  1.27236  0.000842  0.000340  0.015899     2.474
   0.98081  0.03952  0.04501  1.25980  0.000758  0.000310  0.018046     2.444
   0.98816  0.03319  0.04127  1.24201  0.000689  0.000284  0.020017     2.423
   0.99463  0.02777  0.03774  1.21966  0.000626  0.000261  0.022197     2.397
   1.00034  0.02313  0.03441  1.19195  0.000575  0.000241  0.023861     2.386
   1.00542  0.01915  0.03125  1.16037  0.000526  0.000223  0.026033     2.361
   1.00996  0.01574  0.02825  1.12323  0.000489  0.000207  0.027067     2.363
   1.01405  0.01281  0.02541  1.08336  0.000446  0.000191  0.029243     2.339
   1.01775  0.01030  0.02269  1.03538  0.000411  0.000177  0.030955     2.318
   1.02112  0.00816  0.02007  0.97993  0.000383  0.000166  0.031778     2.308
   1.02423  0.00634  0.01756  0.91792  0.000356  0.000155  0.032584     2.289
   1.02710  0.00481  0.01513  0.84971  0.000336  0.000146  0.031707     2.296
   1.02975  0.00353  0.01281  0.77469  0.000309  0.000138  0.032814     2.249
   1.03221  0.00250  0.01057  0.68898  0.000302  0.000133  0.029506     2.264
   1.03452  0.00166  0.00842  0.60548  0.000287  0.000127  0.027261     2.265
   1.03670  0.00100  0.00634  0.51415  0.000270  0.000121  0.025256     2.235
   1.03878  0.00049  0.00433  0.41618  0.000264  0.000117  0.020498     2.256
   1.04077  0.00014  0.00237  0.31743  0.000241  0.000106  0.016972     2.268
   1.04268 -0.00001  0.00047  0.19538  0.000211  0.000095  0.012276     2.234
   1.04452  0.00009 -0.00138  0.04629  0.000204  0.000091  0.003032     2.230
   1.04638  0.00049 -0.00318 -0.11063  0.000204  0.000091  0.007248     2.230
   1.04830  0.00119 -0.00498 -0.26001  0.000217  0.000097  0.015781     2.243
   1.05035  0.00220 -0.00676 -0.39018  0.000238  0.000106  0.021327     2.255
   1.05254  0.00351 -0.00851 -0.51053  0.000251  0.000112  0.026721     2.245
   1.05487  0.00512 -0.01021 -0.60350  0.000291  0.000126  0.025599     2.313
   1.05738  0.00701 -0.01184 -0.67575  0.000323  0.000140  0.026222     2.298
   1.06008  0.00920 -0.01343 -0.72932  0.000374  0.000159  0.023220     2.352
   1.06301  0.01168 -0.01499 -0.77224  0.000413  0.000176  0.022417     2.343
   1.06622  0.01448 -0.01656 -0.80905  0.000458  0.000194  0.020880     2.358
   1.06978  0.01766 -0.01815 -0.84044  0.000505  0.000213  0.019456     2.369
   1.07377  0.02129 -0.01981 -0.86833  0.000554  0.000233  0.018231     2.376
   1.07825  0.02543 -0.02154 -0.89759  0.000589  0.000250  0.018050     2.356
   1.08332  0.03017 -0.02333 -0.92561  0.000636  0.000269  0.017098     2.365
   1.08907  0.03561 -0.02519 -0.95222  0.000685  0.000289  0.016267     2.370
   1.09564  0.04190 -0.02708 -0.97475  0.000750  0.000313  0.014807     2.396
   1.10320  0.04922 -0.02900 -0.99229  0.000830  0.000342  0.013206     2.427
   1.11196  0.05776 -0.03093 -1.00334  0.000935  0.000378  0.011294     2.474
   1.12207  0.06768 -0.03288 -1.01221  0.001033  0.000416  0.010207     2.484
   1.13350  0.07895 -0.03481 -1.02126  0.001122  0.000453  0.009559     2.476
   1.14613  0.09144 -0.03664 -1.02780  0.001233  0.000494  0.008571     2.496
   1.15994  0.10515 -0.03835 -1.03077  0.001365  0.000539  0.007483     2.530
   1.17469  0.11981 -0.03996 -1.03544  0.001452  0.000579  0.007241     2.508
   1.18993  0.13498 -0.04141 -1.04046  0.001538  0.000616  0.006951     2.497
   1.20552  0.15051 -0.04267 -1.04428  0.001637  0.000654  0.006499     2.504
   1.22143  0.16639 -0.04375 -1.04661  0.001746  0.000693  0.006003     2.521
   1.23764  0.18258 -0.04467 -1.04827  0.001848  0.000730  0.005616     2.531
   1.25400  0.19892 -0.04546 -1.05039  0.001930  0.000764  0.005424     2.525
   1.27036  0.21526 -0.04609 -1.05283  0.002003  0.000796  0.005291     2.516
   1.28677  0.23166 -0.04656 -1.05374  0.002104  0.000831  0.004948     2.533
   1.30335  0.24824 -0.04689 -1.05405  0.002205  0.000865  0.004644     2.548
   1.32002  0.26491 -0.04711 -1.05468  0.002287  0.000897  0.004478     2.549
   1.33663  0.28153 -0.04721 -1.05550  0.002359  0.000927  0.004362     2.545
   1.35321  0.29810 -0.04717 -1.05552  0.002450  0.000958  0.004148     2.556
   1.36986  0.31475 -0.04699 -1.05481  0.002553  0.000991  0.003897     2.575
   1.38656  0.33145 -0.04670 -1.05410  0.002645  0.001023  0.003712     2.586
   1.40323  0.34811 -0.04629 -1.05298  0.002744  0.001055  0.003516     2.600
   1.41985  0.36473 -0.04576 -1.05135  0.002852  0.001089  0.003300     2.620
   1.43647  0.38133 -0.04510 -1.04902  0.002978  0.001124  0.003046     2.650
   1.45309  0.39793 -0.04431 -1.04594  0.003124  0.001161  0.002758     2.690
   1.46972  0.41453 -0.04339 -1.04219  0.003291  0.001201  0.002453     2.740
   1.48633  0.43111 -0.04234 -1.03772  0.003487  0.001244  0.002121     2.804
   1.50291  0.44765 -0.04116 -1.03249  0.003728  0.001290  0.001750     2.891
   1.51945  0.46414 -0.03985 -1.02663  0.004027  0.001339  0.001349     3.008
   1.53596  0.48059 -0.03840 -1.02028  0.004417  0.001391  0.000910     3.176
   1.55247  0.49701 -0.03680 -1.01398  0.004922  0.001443  0.000470     3.412
   1.56903  0.51348 -0.03504 -1.00834  0.005562  0.001490  0.000085     3.732
   1.58574  0.53008 -0.03313 -1.00367  0.006349  0.001532 -0.000190     4.145
   1.60264  0.54687 -0.03109 -0.99972  0.007256  0.001568 -0.000326     4.627
   1.61973  0.56382 -0.02896 -0.99652  0.008250  0.001600 -0.000361     5.155
   1.63695  0.58089 -0.02675 -0.99400  0.009312  0.001628 -0.000354     5.721
   1.65426  0.59806 -0.02449 -0.99203  0.010419  0.001651 -0.000336     6.312
   1.67164  0.61529 -0.02221 -0.99045  0.011539  0.001670 -0.000321     6.907
   1.68905  0.63255 -0.01994 -0.98916  0.012644  0.001688 -0.000309     7.491
   1.70644  0.64979 -0.01769 -0.98806  0.013718  0.001704 -0.000301     8.052
   1.72377  0.66698 -0.01547 -0.98710  0.014749  0.001718 -0.000294     8.584
   1.74101  0.68409 -0.01330 -0.98624  0.015714  0.001732 -0.000289     9.074
   1.75815  0.70109 -0.01119 -0.98544  0.016596  0.001745 -0.000284     9.510
   1.77520  0.71802 -0.00917 -0.98466  0.017374  0.001759 -0.000280     9.878
   1.79217  0.73488 -0.00723 -0.98389  0.018034  0.001773 -0.000277    10.170
   1.80907  0.75168 -0.00538 -0.98309  0.018560  0.001788 -0.000273    10.378
   1.82588  0.76841 -0.00365 -0.98226  0.018939  0.001805 -0.000270    10.493
   1.84259  0.78504 -0.00203 -0.98138  0.019138  0.001823 -0.000267    10.498
   1.85920  0.80157 -0.00054 -0.98041  0.019136  0.001843 -0.000264    10.381
   1.87568  0.81800  0.00080 -0.97932  0.018882  0.001866 -0.000262    10.117
   1.89204  0.83432  0.00198 -0.97806  0.018310  0.001893 -0.000259     9.673
   1.90829  0.85054  0.00299 -0.95290  0.017594  0.002475 -0.000199     7.108
   1.92442  0.86665  0.00381 -0.92251  0.016598  0.003219 -0.000166     5.155
   1.94041  0.88262  0.00443 -0.89295  0.015405  0.003979 -0.000010     3.871
   1.95619  0.89840  0.00486 -0.87108  0.014103  0.004560  0.000283     3.093
   1.97170  0.91391  0.00506 -0.85643  0.012808  0.004955  0.000623     2.585
   1.98685  0.92905  0.00502 -0.84836  0.011583  0.005174  0.000969     2.239
   2.00150  0.94370  0.00473 -0.84593  0.010460  0.005248  0.001420     1.993
   2.01546  0.95766  0.00418 -0.84838  0.009439  0.005205  0.001925     1.814
   2.02853  0.97070  0.00337 -0.85541  0.008494  0.005066  0.002467     1.677
   2.04056  0.98268  0.00230 -0.86762  0.007575  0.004834  0.003076     1.567
   2.05143  0.99347  0.00100 -0.88704  0.006620  0.004495  0.003821     1.473
   2.05803  1.00000  0.00000 -0.88659  0.006574  0.004520  0.003925     1.455
   2.05803  1.00010 -0.00002  0.88659  0.034901  0.015999  0.000000     2.181
   2.06467  1.00659 -0.00142  0.89251  0.031865  0.015567  0.000000     2.047
   2.07243  1.01422 -0.00280  0.89508  0.030216  0.015389  0.000000     1.963
   2.08150  1.02317 -0.00425  0.89789  0.028618  0.015201  0.000000     1.883
   2.09210  1.03366 -0.00580  0.90113  0.027035  0.014992  0.000000     1.803
   2.10448  1.04593 -0.00746  0.90501  0.025446  0.014752  0.000000     1.725
   2.11896  1.06029 -0.00925  0.90964  0.023862  0.014477  0.000000     1.648
   2.13587  1.07710 -0.01118  0.91504  0.022307  0.014171  0.000000     1.574
   2.15564  1.09676 -0.01326  0.92116  0.020812  0.013841  0.000000     1.504
   2.17875  1.11976 -0.01549  0.92782  0.019406  0.013499  0.000000     1.438
   2.20575  1.14666 -0.01787  0.93483  0.018113  0.013157  0.000000     1.377
   2.23731  1.17812 -0.02041  0.94192  0.016948  0.012829  0.000000     1.321
   2.27420  1.21490 -0.02309  0.94887  0.015916  0.012522  0.000000     1.271
   2.31730  1.25792 -0.02592  0.95548  0.015016  0.012242  0.000000     1.227
   2.36768  1.30821 -0.02887  0.96164  0.014239  0.011993  0.000000     1.187
   2.42656  1.36701 -0.03191  0.96727  0.013576  0.011773  0.000000     1.153
   2.49537  1.43575 -0.03503  0.97234  0.013017  0.011581  0.000000     1.124
   2.57580  1.51611 -0.03816  0.97684  0.012551  0.011416  0.000000     1.099
   2.66978  1.61005 -0.04127  0.98079  0.012168  0.011275  0.000000     1.079
   2.77963  1.71985 -0.04427  0.98420  0.011856  0.011155  0.000000     1.063
   2.90801  1.84820 -0.04709  0.98711  0.011606  0.011055  0.000000     1.050
   3.05804  1.99821 -0.04962  0.99007  0.011388  0.010955  0.000000     1.040
