#    s        x        y     Ue/Vinf    Dstar     Theta      Cf       H
   0.00000  1.00000  0.00000  0.88058  0.027220  0.011812  0.000667     2.304
   0.00667  0.99364  0.00201  0.88915  0.025058  0.011332  0.000808     2.211
   0.01801  0.98283  0.00544  0.90110  0.022770  0.010713  0.000976     2.125
   0.03089  0.97055  0.00931  0.91554  0.020506  0.010031  0.001176     2.044
   0.04491  0.95712  0.01335  0.93128  0.018518  0.009358  0.001384     1.979
   0.05974  0.94286  0.01740  0.94716  0.016901  0.008741  0.001572     1.934
   0.07527  0.92786  0.02141  0.96236  0.015658  0.008199  0.001717     1.910
   0.09142  0.91220  0.02541  0.97689  0.014699  0.007718  0.001813     1.905
   0.10802  0.89609  0.02942  0.99098  0.013951  0.007282  0.001859     1.916
   0.12488  0.87971  0.03341  1.00476  0.013380  0.006882  0.001850     1.944
   0.14188  0.86318  0.03738  1.01835  0.012971  0.006510  0.001779     1.992
   0.15896  0.84656  0.04130  1.03209  0.012716  0.006155  0.001640     2.066
   0.17607  0.82989  0.04517  1.04646  0.012617  0.005802  0.001428     2.175
   0.19318  0.81321  0.04899  1.06230  0.012674  0.005434  0.001147     2.333
   0.21029  0.79652  0.05273  1.08092  0.012893  0.005022  0.000810     2.567
   0.22743  0.77978  0.05643  1.10428  0.013258  0.004534  0.000501     2.924
   0.24453  0.76308  0.06007  1.13473  0.013712  0.003933  0.000150     3.486
   0.26151  0.74647  0.06361  1.17536  0.014185  0.003189 -0.000167     4.448
   0.27839  0.72994  0.06704  1.22138  0.014588  0.002416 -0.000287     6.039
   0.29522  0.71344  0.07036  1.27258  0.014749  0.001635 -0.000356     9.021
   0.31203  0.69694  0.07357  1.27609  0.014790  0.001588 -0.000406     9.317
   0.32881  0.68046  0.07667  1.27743  0.014540  0.001571 -0.000411     9.256
   0.34552  0.66401  0.07965  1.27866  0.014088  0.001556 -0.000417     9.053
   0.36216  0.64761  0.08250  1.27985  0.013503  0.001543 -0.000423     8.753
   0.37877  0.63123  0.08521  1.28108  0.012834  0.001529 -0.000431     8.392
   0.39539  0.61480  0.08779  1.28238  0.012104  0.001516 -0.000440     7.986
   0.41202  0.59836  0.09025  1.28381  0.011320  0.001502 -0.000451     7.538
   0.42857  0.58198  0.09257  1.28540  0.010502  0.001487 -0.000464     7.064
   0.44503  0.56566  0.09473  1.28726  0.009691  0.001470 -0.000481     6.593
   0.46148  0.54933  0.09674  1.28948  0.008909  0.001451 -0.000501     6.138
   0.47798  0.53293  0.09860  1.29214  0.008147  0.001431 -0.000524     5.695
   0.49446  0.51655  0.10033  1.29532  0.007398  0.001407 -0.000536     5.257
   0.51082  0.50026  0.10190  1.29913  0.006688  0.001381 -0.000521     4.844
   0.52710  0.48404  0.10328  1.30367  0.006057  0.001351 -0.000450     4.482
   0.54339  0.46779  0.10449  1.30893  0.005498  0.001319 -0.000302     4.167
   0.55971  0.45151  0.10554  1.31483  0.004991  0.001285 -0.000060     3.884
   0.57600  0.43525  0.10643  1.32152  0.004528  0.001247  0.000291     3.630
   0.59218  0.41907  0.10713  1.32894  0.004130  0.001207  0.000716     3.421
   0.60829  0.40298  0.10765  1.33682  0.003793  0.001165  0.001185     3.254
   0.62434  0.38693  0.10796  1.34482  0.003514  0.001124  0.001654     3.127
   0.64042  0.37085  0.10808  1.35271  0.003278  0.001083  0.002116     3.028
   0.65651  0.35476  0.10800  1.36044  0.003070  0.001042  0.002586     2.946
   0.67249  0.33878  0.10774  1.36830  0.002859  0.001001  0.003179     2.856
   0.68825  0.32303  0.10727  1.37565  0.002666  0.000961  0.003828     2.774
   0.70393  0.30737  0.10654  1.38109  0.002536  0.000927  0.004243     2.736
   0.71975  0.29158  0.10557  1.38548  0.002437  0.000895  0.004502     2.723
   0.73559  0.27578  0.10439  1.39087  0.002301  0.000859  0.005060     2.678
   0.75115  0.26028  0.10302  1.39626  0.002148  0.000822  0.005882     2.612
   0.76650  0.24502  0.10139  1.39889  0.002040  0.000791  0.006445     2.578
   0.78192  0.22972  0.09944  1.39896  0.001979  0.000765  0.006588     2.586
   0.79744  0.21436  0.09725  1.39994  0.001897  0.000736  0.006952     2.577
   0.81279  0.19920  0.09484  1.40142  0.001791  0.000704  0.007650     2.543
   0.82793  0.18429  0.09217  1.40049  0.001712  0.000676  0.008082     2.533
   0.84302  0.16950  0.08922  1.39848  0.001645  0.000648  0.008363     2.537
   0.85806  0.15481  0.08599  1.39647  0.001576  0.000620  0.008661     2.543
   0.87291  0.14036  0.08253  1.39505  0.001492  0.000589  0.009217     2.535
   0.88737  0.12638  0.07886  1.39372  0.001386  0.000555  0.010320     2.498
   0.90140  0.11290  0.07496  1.38858  0.001305  0.000525  0.011057     2.486
   0.91519  0.09977  0.07076  1.38077  0.001262  0.000499  0.010840     2.531
   0.92848  0.08721  0.06643  1.37754  0.001169  0.000464  0.011810     2.520
   0.94079  0.07568  0.06209  1.37376  0.001040  0.000427  0.014454     2.437
   0.95221  0.06515  0.05767  1.35885  0.000980  0.000402  0.015130     2.440
   0.96284  0.05550  0.05322  1.34348  0.000946  0.000378  0.014544     2.500
   0.97241  0.04692  0.04898  1.33556  0.000873  0.000348  0.015533     2.509
   0.98081  0.03952  0.04501  1.32813  0.000782  0.000317  0.017992     2.469
   0.98816  0.03319  0.04127  1.31479  0.000709  0.000290  0.020104     2.445
   0.99463  0.02777  0.03774  1.29719  0.000646  0.000267  0.022279     2.423
   1.00034  0.02313  0.03441  1.27504  0.000590  0.000246  0.024500     2.402
   1.00542  0.01915  0.03125  1.24817  0.000543  0.000227  0.026356     2.390
   1.00996  0.01574  0.02825  1.21763  0.000499  0.000210  0.028425     2.375
   1.01405  0.01281  0.02541  1.18218  0.000459  0.000194  0.030447     2.360
   1.01775  0.01030  0.02269  1.14032  0.000419  0.000180  0.033184     2.327
   1.02112  0.00816  0.02007  1.08897  0.000391  0.000169  0.034350     2.315
   1.02423  0.00634  0.01756  1.03289  0.000367  0.000158  0.034643     2.317
   1.02710  0.00481  0.01513  0.97165  0.000338  0.000148  0.036368     2.286
   1.02975  0.00353  0.01281  0.89947  0.000320  0.000141  0.036163     2.271
   1.03221  0.00250  0.01057  0.82181  0.000306  0.000135  0.034678     2.266
   1.03452  0.00166  0.00842  0.74182  0.000293  0.000129  0.032594     2.270
   1.03670  0.00100  0.00634  0.65586  0.000276  0.000123  0.031408     2.239
   1.03878  0.00049  0.00433  0.56624  0.000271  0.000118  0.026387     2.288
   1.04077  0.00014  0.00237  0.47521  0.000242  0.000107  0.025474     2.259
   1.04268 -0.00001  0.00047  0.36271  0.000221  0.000097  0.021210     2.266
   1.04452  0.00009 -0.00138  0.22308  0.000200  0.000090  0.014938     2.224
   1.04638  0.00049 -0.00318  0.06521  0.000209  0.000094  0.004164     2.230
   1.04830  0.00119 -0.00498 -0.09028  0.000209  0.000094  0.005775     2.230
   1.05035  0.00220 -0.00676 -0.23323  0.000232  0.000103  0.013152     2.250
   1.05254  0.00351 -0.00851 -0.35880  0.000250  0.000111  0.018954     2.242
   1.05487  0.00512 -0.01021 -0.46372  0.000280  0.000123  0.021099     2.279
   1.05738  0.00701 -0.01184 -0.54619  0.000315  0.000138  0.021891     2.289
   1.06008  0.00920 -0.01343 -0.61076  0.000357  0.000154  0.021065     2.315
   1.06301  0.01168 -0.01499 -0.66138  0.000402  0.000173  0.020001     2.330
   1.06622  0.01448 -0.01656 -0.70873  0.000433  0.000188  0.020224     2.311
   1.06978  0.01766 -0.01815 -0.74663  0.000489  0.000207  0.018053     2.359
   1.07377  0.02129 -0.01981 -0.78111  0.000529  0.000226  0.017671     2.345
   1.07825  0.02543 -0.02154 -0.81572  0.000569  0.000243  0.017283     2.339
   1.08332  0.03017 -0.02333 -0.85011  0.000609  0.000260  0.016857     2.337
   1.08907  0.03561 -0.02519 -0.88114  0.000662  0.000281  0.015762     2.357
   1.09564  0.04190 -0.02708 -0.90824  0.000723  0.000304  0.014600     2.376
   1.10320  0.04922 -0.02900 -0.93099  0.000797  0.000332  0.013269     2.399
   1.11196  0.05776 -0.03093 -0.94654  0.000900  0.000368  0.011389     2.447
   1.12207  0.06768 -0.03288 -0.95985  0.000991  0.000404  0.010432     2.451
   1.13350  0.07895 -0.03481 -0.97311  0.001076  0.000440  0.009811     2.444
   1.14613  0.09144 -0.03664 -0.98321  0.001185  0.000481  0.008797     2.466
   1.15994  0.10515 -0.03835 -0.98962  0.001309  0.000525  0.007773     2.496
   1.17469  0.11981 -0.03996 -0.99725  0.001394  0.000563  0.007520     2.475
   1.18993  0.13498 -0.04141 -1.00455  0.001482  0.000600  0.007164     2.470
   1.20552  0.15051 -0.04267 -1.01074  0.001574  0.000636  0.006752     2.474
   1.22143  0.16639 -0.04375 -1.01510  0.001679  0.000674  0.006251     2.491
   1.23764  0.18258 -0.04467 -1.01849  0.001779  0.000711  0.005851     2.502
   1.25400  0.19892 -0.04546 -1.02233  0.001856  0.000744  0.005676     2.494
   1.27036  0.21526 -0.04609 -1.02598  0.001931  0.000775  0.005497     2.490
   1.28677  0.23166 -0.04656 -1.02848  0.002022  0.000808  0.005199     2.501
   1.30335  0.24824 -0.04689 -1.02993  0.002122  0.000843  0.004871     2.518
   1.32002  0.26491 -0.04711 -1.03171  0.002200  0.000873  0.004708     2.518
   1.33663  0.28153 -0.04721 -1.03358  0.002269  0.000902  0.004589     2.515
   1.35321  0.29810 -0.04717 -1.03461  0.002356  0.000933  0.004377     2.525
   1.36986  0.31475 -0.04699 -1.03493  0.002451  0.000965  0.004136     2.541
   1.38656  0.33145 -0.04670 -1.03506  0.002540  0.000996  0.003944     2.551
   1.40323  0.34811 -0.04629 -1.03498  0.002627  0.001026  0.003775     2.561
   1.41985  0.36473 -0.04576 -1.03429  0.002726  0.001058  0.003567     2.577
   1.43647  0.38133 -0.04510 -1.03283  0.002841  0.001091  0.003320     2.603
   1.45309  0.39793 -0.04431 -1.03071  0.002969  0.001127  0.003057     2.635
   1.46972  0.41453 -0.04339 -1.02786  0.003114  0.001164  0.002771     2.675
   1.48633  0.43111 -0.04234 -1.02426  0.003283  0.001205  0.002460     2.725
   1.50291  0.44765 -0.04116 -1.01988  0.003483  0.001248  0.002121     2.792
   1.51945  0.46414 -0.03985 -1.01463  0.003735  0.001295  0.001733     2.884
   1.53596  0.48059 -0.03840 -1.00863  0.004055  0.001346  0.001305     3.013
   1.55247  0.49701 -0.03680 -1.00216  0.004479  0.001400  0.000840     3.200
   1.56903  0.51348 -0.03504 -0.99587  0.005023  0.001452  0.000394     3.458
   1.58574  0.53008 -0.03313 -0.99037  0.005703  0.001500  0.000023     3.802
   1.60264  0.54687 -0.03109 -0.98582  0.006501  0.001541 -0.000216     4.218
   1.61973  0.56382 -0.02896 -0.98195  0.007391  0.001578 -0.000327     4.683
   1.63695  0.58089 -0.02675 -0.97880  0.008354  0.001611 -0.000353     5.186
   1.65426  0.59806 -0.02449 -0.97628  0.009370  0.001639 -0.000345     5.717
   1.67164  0.61529 -0.02221 -0.97426  0.010411  0.001663 -0.000328     6.260
   1.68905  0.63255 -0.01994 -0.97261  0.011449  0.001684 -0.000314     6.798
   1.70644  0.64979 -0.01769 -0.97123  0.012469  0.001703 -0.000303     7.321
   1.72377  0.66698 -0.01547 -0.97004  0.013462  0.001721 -0.000294     7.824
   1.74101  0.68409 -0.01330 -0.96900  0.014406  0.001737 -0.000288     8.295
   1.75815  0.70109 -0.01119 -0.96805  0.015282  0.001752 -0.000282     8.723
   1.77520  0.71802 -0.00917 -0.96715  0.016071  0.001767 -0.000277     9.094
   1.79217  0.73488 -0.00723 -0.96629  0.016763  0.001783 -0.000273     9.404
   1.80907  0.75168 -0.00538 -0.96543  0.017344  0.001799 -0.000270     9.643
   1.82588  0.76841 -0.00365 -0.96455  0.017803  0.001815 -0.000266     9.808
   1.84259  0.78504 -0.00203 -0.96365  0.018113  0.001833 -0.000263     9.881
   1.85920  0.80157 -0.00054 -0.96269  0.018261  0.001853 -0.000260     9.857
   1.87568  0.81800  0.00080 -0.96165  0.018214  0.001874 -0.000257     9.720
   1.89204  0.83432  0.00198 -0.96050  0.017940  0.001898 -0.000255     9.453
   1.90829  0.85054  0.00299 -0.95920  0.017381  0.001925 -0.000253     9.030
   1.92442  0.86665  0.00381 -0.94554  0.016588  0.002226 -0.000196     7.451
   1.94041  0.88262  0.00443 -0.91639  0.015593  0.002896 -0.000174     5.385
   1.95619  0.89840  0.00486 -0.88711  0.014375  0.003597 -0.000042     3.997
   1.97170  0.91391  0.00506 -0.86540  0.013032  0.004131  0.000272     3.155
   1.98685  0.92905  0.00502 -0.85113  0.011685  0.004485  0.000663     2.606
   2.00150  0.94370  0.00473 -0.84411  0.010411  0.004661  0.001077     2.234
   2.01546  0.95766  0.00418 -0.84353  0.009249  0.004686  0.001524     1.974
   2.02853  0.97070  0.00337 -0.84880  0.008190  0.004591  0.002119     1.784
   2.04056  0.98268  0.00230 -0.86024  0.007189  0.004388  0.002795     1.638
   2.05143  0.99347  0.00100 -0.87973  0.006184  0.004072  0.003624     1.519
   2.05803  1.00000  0.00000 -0.88058  0.006077  0.004074  0.003793     1.492
   2.05803  1.00010 -0.00002  0.88058  0.033297  0.015886  0.000000     2.096
   2.06467  1.00659 -0.00142  0.88766  0.030346  0.015382  0.000000     1.973
   2.07243  1.01422 -0.00279  0.89101  0.028741  0.015155  0.000000     1.896
   2.08150  1.02318 -0.00422  0.89459  0.027199  0.014923  0.000000     1.823
   2.09210  1.03366 -0.00575  0.89857  0.025686  0.014674  0.000000     1.750
   2.10448  1.04594 -0.00739  0.90314  0.024181  0.014400  0.000000     1.679
   2.11896  1.06031 -0.00915  0.90838  0.022694  0.014100  0.000000     1.610
   2.13587  1.07712 -0.01103  0.91428  0.021246  0.013777  0.000000     1.542
   2.15564  1.09679 -0.01305  0.92076  0.019862  0.013440  0.000000     1.478
   2.17875  1.11979 -0.01519  0.92766  0.018565  0.013099  0.000000     1.417
   2.20575  1.14670 -0.01747  0.93476  0.017375  0.012764  0.000000     1.361
   2.23731  1.17817 -0.01987  0.94186  0.016302  0.012446  0.000000     1.310
   2.27420  1.21497 -0.02239  0.94876  0.015348  0.012152  0.000000     1.263
   2.31730  1.25800 -0.02499  0.95530  0.014512  0.011884  0.000000     1.221
   2.36768  1.30830 -0.02767  0.96137  0.013787  0.011645  0.000000     1.184
   2.42656  1.36712 -0.03037  0.96693  0.013164  0.011435  0.000000     1.151
   2.49537  1.43588 -0.03304  0.97195  0.012636  0.011251  0.000000     1.123
   2.57580  1.51626 -0.03563  0.97642  0.012193  0.011091  0.000000     1.099
   2.66978  1.61022 -0.03806  0.98035  0.011827  0.010954  0.000000     1.080
   2.77963  1.72004 -0.04023  0.98377  0.011526  0.010838  0.000000     1.064
   2.90801  1.84841 -0.04201  0.98669  0.011284  0.010740  0.000000     1.051
   3.05804  1.99844 -0.04327  0.98967  0.011072  0.010642  0.000000     1.040
