#    s        x        y     Ue/Vinf    Dstar     Theta      Cf       H
   0.00000  1.00000  0.00000  0.88362  0.029086  0.012259  0.000588     2.373
   0.00667  0.99364  0.00201  0.89137  0.026838  0.011802  0.000718     2.274
   0.01801  0.98283  0.00544  0.90236  0.024428  0.011201  0.000876     2.181
   0.03089  0.97055  0.00931  0.91584  0.022015  0.010527  0.001069     2.091
   0.04491  0.95712  0.01335  0.93081  0.019859  0.009849  0.001276     2.016
   0.05974  0.94286  0.01740  0.94623  0.018064  0.009213  0.001474     1.961
   0.07527  0.92786  0.02141  0.96130  0.016641  0.008644  0.001642     1.925
   0.09142  0.91220  0.02541  0.97596  0.015502  0.008132  0.001774     1.906
   0.10802  0.89609  0.02942  0.99032  0.014576  0.007666  0.001870     1.901
   0.12488  0.87971  0.03341  1.00441  0.013824  0.007239  0.001926     1.910
   0.14188  0.86318  0.03738  1.01823  0.013230  0.006846  0.001933     1.932
   0.15896  0.84656  0.04130  1.03191  0.012777  0.006479  0.001886     1.972
   0.17607  0.82989  0.04517  1.04560  0.012466  0.006132  0.001774     2.033
   0.19318  0.81321  0.04899  1.05972  0.012292  0.005794  0.001595     2.122
   0.21029  0.79652  0.05273  1.07484  0.012264  0.005449  0.001344     2.251
   0.22743  0.77978  0.05643  1.09203  0.012382  0.005078  0.001028     2.438
   0.24453  0.76308  0.06007  1.11283  0.012622  0.004653  0.000706     2.713
   0.26151  0.74647  0.06361  1.13892  0.012987  0.004148  0.000376     3.131
   0.27839  0.72994  0.06704  1.17245  0.013443  0.003539  0.000013     3.799
   0.29522  0.71344  0.07036  1.21563  0.013899  0.002811 -0.000245     4.944
   0.31203  0.69694  0.07357  1.26187  0.014239  0.002097 -0.000327     6.789
   0.32881  0.68046  0.07667  1.29942  0.014357  0.001571 -0.000419     9.140
   0.34552  0.66401  0.07965  1.30097  0.014301  0.001552 -0.000424     9.214
   0.36216  0.64761  0.08250  1.30234  0.013987  0.001536 -0.000430     9.106
   0.37877  0.63123  0.08521  1.30363  0.013514  0.001522 -0.000436     8.882
   0.39539  0.61480  0.08779  1.30492  0.012925  0.001508 -0.000443     8.573
   0.41202  0.59836  0.09025  1.30625  0.012240  0.001494 -0.000452     8.193
   0.42857  0.58198  0.09257  1.30765  0.011485  0.001480 -0.000462     7.759
   0.44503  0.56566  0.09473  1.30922  0.010708  0.001466 -0.000475     7.306
   0.46148  0.54933  0.09674  1.31104  0.009933  0.001450 -0.000490     6.852
   0.47798  0.53293  0.09860  1.31316  0.009153  0.001432 -0.000509     6.392
   0.49446  0.51655  0.10033  1.31566  0.008367  0.001412 -0.000533     5.924
   0.51082  0.50026  0.10190  1.31864  0.007603  0.001391 -0.000553     5.467
   0.52710  0.48404  0.10328  1.32226  0.006902  0.001366 -0.000556     5.054
   0.54339  0.46779  0.10449  1.32660  0.006263  0.001338 -0.000520     4.681
   0.55971  0.45151  0.10554  1.33171  0.005671  0.001307 -0.000413     4.339
   0.57600  0.43525  0.10643  1.33750  0.005119  0.001274 -0.000199     4.019
   0.59218  0.41907  0.10713  1.34404  0.004633  0.001238  0.000122     3.742
   0.60829  0.40298  0.10765  1.35139  0.004214  0.001199  0.000531     3.514
   0.62434  0.38693  0.10796  1.35932  0.003863  0.001159  0.000985     3.335
   0.64042  0.37085  0.10808  1.36757  0.003570  0.001117  0.001454     3.196
   0.65651  0.35476  0.10800  1.37600  0.003310  0.001075  0.001960     3.078
   0.67249  0.33878  0.10774  1.38464  0.003059  0.001033  0.002575     2.962
   0.68825  0.32303  0.10727  1.39286  0.002840  0.000991  0.003221     2.864
   0.70393  0.30737  0.10654  1.39964  0.002683  0.000955  0.003689     2.810
   0.71975  0.29158  0.10557  1.40536  0.002566  0.000921  0.004001     2.786
   0.73559  0.27578  0.10439  1.41189  0.002416  0.000884  0.004571     2.733
   0.75115  0.26028  0.10302  1.41857  0.002247  0.000845  0.005415     2.658
   0.76650  0.24502  0.10139  1.42247  0.002132  0.000813  0.005966     2.622
   0.78192  0.22972  0.09944  1.42406  0.002065  0.000786  0.006127     2.628
   0.79744  0.21436  0.09725  1.42664  0.001974  0.000755  0.006525     2.614
   0.81279  0.19920  0.09484  1.42959  0.001863  0.000723  0.007209     2.579
   0.82793  0.18429  0.09217  1.43046  0.001778  0.000693  0.007669     2.566
   0.84302  0.16950  0.08922  1.43011  0.001710  0.000665  0.007927     2.571
   0.85806  0.15481  0.08599  1.43001  0.001638  0.000636  0.008220     2.577
   0.87291  0.14036  0.08253  1.43067  0.001550  0.000603  0.008769     2.569
   0.88737  0.12638  0.07886  1.43176  0.001437  0.000568  0.009904     2.528
   0.90140  0.11290  0.07496  1.42909  0.001355  0.000538  0.010602     2.518
   0.91519  0.09977  0.07076  1.42412  0.001309  0.000511  0.010391     2.564
   0.92848  0.08721  0.06643  1.42391  0.001212  0.000475  0.011407     2.550
   0.94079  0.07568  0.06209  1.42352  0.001076  0.000437  0.014134     2.460
   0.95221  0.06515  0.05767  1.41198  0.001019  0.000412  0.014591     2.474
   0.96284  0.05550  0.05322  1.40123  0.000983  0.000387  0.014017     2.538
   0.97241  0.04692  0.04898  1.39793  0.000901  0.000355  0.015295     2.536
   0.98081  0.03952  0.04501  1.39421  0.000811  0.000324  0.017532     2.504
   0.98816  0.03319  0.04127  1.38624  0.000733  0.000296  0.019909     2.474
   0.99463  0.02777  0.03774  1.37367  0.000667  0.000272  0.022214     2.451
   1.00034  0.02313  0.03441  1.35692  0.000609  0.000251  0.024608     2.428
   1.00542  0.01915  0.03125  1.33557  0.000556  0.000231  0.027167     2.404
   1.00996  0.01574  0.02825  1.30916  0.000514  0.000214  0.028950     2.399
   1.01405  0.01281  0.02541  1.27975  0.000470  0.000198  0.031722     2.374
   1.01775  0.01030  0.02269  1.24302  0.000430  0.000184  0.034676     2.344
   1.02112  0.00816  0.02007  1.19778  0.000401  0.000172  0.036249     2.332
   1.02423  0.00634  0.01756  1.14779  0.000375  0.000161  0.037252     2.329
   1.02710  0.00481  0.01513  1.09218  0.000346  0.000150  0.039623     2.297
   1.02975  0.00353  0.01281  1.02505  0.000325  0.000143  0.040503     2.273
   1.03221  0.00250  0.01057  0.95161  0.000313  0.000137  0.038719     2.280
   1.03452  0.00166  0.00842  0.87707  0.000297  0.000131  0.038058     2.266
   1.03670  0.00100  0.00634  0.79607  0.000285  0.000126  0.036378     2.257
   1.03878  0.00049  0.00433  0.71488  0.000277  0.000120  0.032305     2.300
   1.04077  0.00014  0.00237  0.63489  0.000248  0.000108  0.032029     2.298
   1.04268 -0.00001  0.00047  0.52922  0.000219  0.000098  0.031795     2.244
   1.04452  0.00009 -0.00138  0.39537  0.000208  0.000092  0.024780     2.257
   1.04638  0.00049 -0.00318  0.23980  0.000197  0.000089  0.016441     2.215
   1.04830  0.00119 -0.00498  0.07732  0.000219  0.000098  0.004711     2.230
   1.05035  0.00220 -0.00676 -0.07301  0.000219  0.000098  0.004450     2.230
   1.05254  0.00351 -0.00851 -0.20884  0.000248  0.000110  0.011012     2.252
   1.05487  0.00512 -0.01021 -0.32432  0.000269  0.000120  0.015856     2.244
   1.05738  0.00701 -0.01184 -0.41855  0.000306  0.000134  0.017321     2.284
   1.06008  0.00920 -0.01343 -0.49234  0.000345  0.000151  0.018037     2.289
   1.06301  0.01168 -0.01499 -0.55424  0.000383  0.000167  0.018080     2.299
   1.06622  0.01448 -0.01656 -0.60788  0.000422  0.000183  0.017909     2.306
   1.06978  0.01766 -0.01815 -0.65292  0.000470  0.000202  0.016898     2.330
   1.07377  0.02129 -0.01981 -0.69497  0.000508  0.000219  0.016810     2.319
   1.07825  0.02543 -0.02154 -0.73496  0.000550  0.000236  0.016301     2.326
   1.08332  0.03017 -0.02333 -0.77447  0.000588  0.000253  0.016166     2.320
   1.08907  0.03561 -0.02519 -0.81126  0.000637  0.000273  0.015386     2.336
   1.09564  0.04190 -0.02708 -0.84342  0.000698  0.000296  0.014303     2.358
   1.10320  0.04922 -0.02900 -0.87000  0.000773  0.000324  0.012962     2.385
   1.11196  0.05776 -0.03093 -0.89065  0.000865  0.000358  0.011500     2.416
   1.12207  0.06768 -0.03288 -0.90795  0.000958  0.000394  0.010453     2.429
   1.13350  0.07895 -0.03481 -0.92552  0.001036  0.000429  0.009985     2.415
   1.14613  0.09144 -0.03664 -0.93935  0.001143  0.000468  0.008957     2.440
   1.15994  0.10515 -0.03835 -0.94927  0.001260  0.000511  0.008002     2.465
   1.17469  0.11981 -0.03996 -0.95974  0.001343  0.000549  0.007716     2.449
   1.18993  0.13498 -0.04141 -0.96978  0.001427  0.000584  0.007385     2.443
   1.20552  0.15051 -0.04267 -0.97813  0.001520  0.000620  0.006939     2.451
   1.22143  0.16639 -0.04375 -0.98458  0.001619  0.000657  0.006461     2.465
   1.23764  0.18258 -0.04467 -0.98990  0.001714  0.000693  0.006078     2.474
   1.25400  0.19892 -0.04546 -0.99514  0.001792  0.000725  0.005861     2.471
   1.27036  0.21526 -0.04609 -1.00053  0.001860  0.000755  0.005730     2.462
   1.28677  0.23166 -0.04656 -1.00411  0.001954  0.000788  0.005378     2.479
   1.30335  0.24824 -0.04689 -1.00702  0.002044  0.000821  0.005095     2.491
   1.32002  0.26491 -0.04711 -1.00996  0.002119  0.000851  0.004924     2.491
   1.33663  0.28153 -0.04721 -1.01297  0.002186  0.000879  0.004809     2.487
   1.35321  0.29810 -0.04717 -1.01524  0.002264  0.000908  0.004620     2.494
   1.36986  0.31475 -0.04699 -1.01655  0.002356  0.000939  0.004369     2.510
   1.38656  0.33145 -0.04670 -1.01771  0.002439  0.000968  0.004187     2.519
   1.40323  0.34811 -0.04629 -1.01853  0.002522  0.000998  0.004014     2.528
   1.41985  0.36473 -0.04576 -1.01891  0.002609  0.001027  0.003833     2.539
   1.43647  0.38133 -0.04510 -1.01843  0.002713  0.001059  0.003597     2.561
   1.45309  0.39793 -0.04431 -1.01728  0.002827  0.001093  0.003349     2.587
   1.46972  0.41453 -0.04339 -1.01550  0.002951  0.001128  0.003094     2.617
   1.48633  0.43111 -0.04234 -1.01288  0.003096  0.001165  0.002803     2.658
   1.50291  0.44765 -0.04116 -1.00955  0.003261  0.001205  0.002498     2.707
   1.51945  0.46414 -0.03985 -1.00520  0.003468  0.001249  0.002139     2.777
   1.53596  0.48059 -0.03840 -0.99996  0.003726  0.001297  0.001738     2.873
   1.55247  0.49701 -0.03680 -0.99383  0.004067  0.001349  0.001281     3.014
   1.56903  0.51348 -0.03504 -0.98730  0.004508  0.001405  0.000806     3.210
   1.58574  0.53008 -0.03313 -0.98102  0.005068  0.001458  0.000364     3.476
   1.60264  0.54687 -0.03109 -0.97558  0.005737  0.001506  0.000018     3.808
   1.61973  0.56382 -0.02896 -0.97103  0.006491  0.001548 -0.000202     4.192
   1.63695  0.58089 -0.02675 -0.96710  0.007319  0.001587 -0.000310     4.613
   1.65426  0.59806 -0.02449 -0.96382  0.008205  0.001621 -0.000342     5.063
   1.67164  0.61529 -0.02221 -0.96114  0.009123  0.001651 -0.000340     5.526
   1.68905  0.63255 -0.01994 -0.95892  0.010050  0.001677 -0.000326     5.991
   1.70644  0.64979 -0.01769 -0.95707  0.010972  0.001701 -0.000312     6.450
   1.72377  0.66698 -0.01547 -0.95550  0.011882  0.001723 -0.000300     6.897
   1.74101  0.68409 -0.01330 -0.95413  0.012757  0.001743 -0.000291     7.320
   1.75815  0.70109 -0.01119 -0.95290  0.013583  0.001761 -0.000284     7.712
   1.77520  0.71802 -0.00917 -0.95178  0.014339  0.001779 -0.000277     8.059
   1.79217  0.73488 -0.00723 -0.95072  0.015019  0.001797 -0.000272     8.357
   1.80907  0.75168 -0.00538 -0.94970  0.015608  0.001815 -0.000268     8.600
   1.82588  0.76841 -0.00365 -0.94869  0.016100  0.001833 -0.000264     8.783
   1.84259  0.78504 -0.00203 -0.94768  0.016472  0.001852 -0.000260     8.894
   1.85920  0.80157 -0.00054 -0.94665  0.016714  0.001872 -0.000257     8.930
   1.87568  0.81800  0.00080 -0.94556  0.016804  0.001893 -0.000254     8.877
   1.89204  0.83432  0.00198 -0.94441  0.016724  0.001916 -0.000252     8.730
   1.90829  0.85054  0.00299 -0.94316  0.016446  0.001940 -0.000250     8.475
   1.92442  0.86665  0.00381 -0.94178  0.015941  0.001968 -0.000248     8.101
   1.94041  0.88262  0.00443 -0.94022  0.015165  0.001998 -0.000248     7.591
   1.95619  0.89840  0.00486 -0.92249  0.014188  0.002359 -0.000183     6.015
   1.97170  0.91391  0.00506 -0.89447  0.012992  0.002945 -0.000117     4.412
   1.98685  0.92905  0.00502 -0.87036  0.011623  0.003459  0.000196     3.361
   2.00150  0.94370  0.00473 -0.85572  0.010214  0.003771  0.000675     2.708
   2.01546  0.95766  0.00418 -0.84962  0.008875  0.003903  0.001226     2.274
   2.02853  0.97070  0.00337 -0.85157  0.007650  0.003880  0.001839     1.972
   2.04056  0.98268  0.00230 -0.86173  0.006517  0.003724  0.002555     1.750
   2.05143  0.99347  0.00100 -0.88216  0.005421  0.003439  0.003528     1.576
   2.05803  1.00000  0.00000 -0.88362  0.005281  0.003434  0.003767     1.538
   2.05803  1.00010 -0.00002  0.88362  0.034367  0.015693  0.000000     2.190
   2.06467  1.00659 -0.00141  0.88977  0.031339  0.015250  0.000000     2.055
   2.07243  1.01423 -0.00278  0.89263  0.029686  0.015055  0.000000     1.972
   2.08150  1.02318 -0.00420  0.89574  0.028090  0.014851  0.000000     1.891
   2.09210  1.03367 -0.00571  0.89927  0.026519  0.014628  0.000000     1.813
   2.10448  1.04595 -0.00732  0.90341  0.024949  0.014376  0.000000     1.735
   2.11896  1.06032 -0.00903  0.90827  0.023392  0.014094  0.000000     1.660
   2.13587  1.07714 -0.01086  0.91384  0.021870  0.013786  0.000000     1.586
   2.15564  1.09682 -0.01281  0.92005  0.020411  0.013458  0.000000     1.517
   2.17875  1.11983 -0.01486  0.92676  0.019041  0.013122  0.000000     1.451
   2.20575  1.14675 -0.01702  0.93374  0.017781  0.012789  0.000000     1.390
   2.23731  1.17823 -0.01927  0.94078  0.016644  0.012470  0.000000     1.335
   2.27420  1.21504 -0.02159  0.94767  0.015634  0.012173  0.000000     1.284
   2.31730  1.25808 -0.02395  0.95423  0.014750  0.011902  0.000000     1.239
   2.36768  1.30841 -0.02630  0.96034  0.013982  0.011660  0.000000     1.199
   2.42656  1.36724 -0.02861  0.96595  0.013324  0.011446  0.000000     1.164
   2.49537  1.43602 -0.03079  0.97103  0.012765  0.011259  0.000000     1.134
   2.57580  1.51641 -0.03276  0.97556  0.012295  0.011096  0.000000     1.108
   2.66978  1.61039 -0.03442  0.97957  0.011906  0.010957  0.000000     1.087
   2.77963  1.72023 -0.03563  0.98305  0.011587  0.010837  0.000000     1.069
   2.90801  1.84860 -0.03624  0.98605  0.011329  0.010737  0.000000     1.055
   3.05804  1.99864 -0.03605  0.98912  0.011103  0.010635  0.000000     1.044
