#    s        x        y     Ue/Vinf    Dstar     Theta      Cf       H
   0.00000  1.00000  0.00000  0.88569  0.028778  0.011923  0.000555     2.414
   0.00667  0.99364  0.00201  0.89325  0.026580  0.011486  0.000679     2.314
   0.01801  0.98283  0.00544  0.90404  0.024235  0.010907  0.000827     2.222
   0.03089  0.97055  0.00931  0.91725  0.021891  0.010259  0.001006     2.134
   0.04491  0.95712  0.01335  0.93187  0.019805  0.009607  0.001195     2.061
   0.05974  0.94286  0.01740  0.94691  0.018081  0.008996  0.001369     2.010
   0.07527  0.92786  0.02141  0.96158  0.016730  0.008448  0.001509     1.980
   0.09142  0.91220  0.02541  0.97587  0.015666  0.007954  0.001607     1.970
   0.10802  0.89609  0.02942  0.98990  0.014819  0.007502  0.001663     1.975
   0.12488  0.87971  0.03341  1.00374  0.014154  0.007084  0.001671     1.998
   0.14188  0.86318  0.03738  1.01748  0.013654  0.006695  0.001626     2.040
   0.15896  0.84656  0.04130  1.03135  0.013308  0.006323  0.001521     2.105
   0.17607  0.82989  0.04517  1.04574  0.013115  0.005958  0.001351     2.201
   0.19318  0.81321  0.04899  1.06129  0.013074  0.005585  0.001119     2.341
   0.21029  0.79652  0.05273  1.07902  0.013187  0.005182  0.000830     2.545
   0.22743  0.77978  0.05643  1.10045  0.013443  0.004720  0.000550     2.848
   0.24453  0.76308  0.06007  1.12748  0.013795  0.004171  0.000244     3.307
   0.26151  0.74647  0.06361  1.16235  0.014202  0.003508 -0.000071     4.048
   0.27839  0.72994  0.06704  1.20414  0.014590  0.002775 -0.000253     5.258
   0.29522  0.71344  0.07036  1.24878  0.014846  0.002057 -0.000324     7.216
   0.31203  0.69694  0.07357  1.28117  0.014901  0.001584 -0.000408     9.405
   0.32881  0.68046  0.07667  1.28260  0.014785  0.001566 -0.000413     9.438
   0.34552  0.66401  0.07965  1.28386  0.014416  0.001551 -0.000418     9.294
   0.36216  0.64761  0.08250  1.28505  0.013884  0.001537 -0.000424     9.031
   0.37877  0.63123  0.08521  1.28624  0.013249  0.001524 -0.000431     8.693
   0.39539  0.61480  0.08779  1.28748  0.012540  0.001511 -0.000439     8.299
   0.41202  0.59836  0.09025  1.28882  0.011763  0.001497 -0.000449     7.855
   0.42857  0.58198  0.09257  1.29030  0.010945  0.001483 -0.000461     7.379
   0.44503  0.56566  0.09473  1.29200  0.010124  0.001468 -0.000476     6.897
   0.46148  0.54933  0.09674  1.29402  0.009325  0.001450 -0.000495     6.429
   0.47798  0.53293  0.09860  1.29643  0.008541  0.001431 -0.000517     5.969
   0.49446  0.51655  0.10033  1.29931  0.007763  0.001409 -0.000538     5.509
   0.51082  0.50026  0.10190  1.30279  0.007024  0.001385 -0.000541     5.073
   0.52710  0.48404  0.10328  1.30698  0.006358  0.001357 -0.000506     4.686
   0.54339  0.46779  0.10449  1.31193  0.005760  0.001326 -0.000403     4.344
   0.55971  0.45151  0.10554  1.31755  0.005219  0.001293 -0.000209     4.037
   0.57600  0.43525  0.10643  1.32391  0.004720  0.001257  0.000101     3.755
   0.59218  0.41907  0.10713  1.33108  0.004289  0.001218  0.000499     3.522
   0.60829  0.40298  0.10765  1.33886  0.003923  0.001177  0.000958     3.333
   0.62434  0.38693  0.10796  1.34694  0.003619  0.001135  0.001433     3.188
   0.64042  0.37085  0.10808  1.35501  0.003365  0.001094  0.001900     3.077
   0.65651  0.35476  0.10800  1.36303  0.003140  0.001052  0.002387     2.984
   0.67249  0.33878  0.10774  1.37120  0.002916  0.001010  0.002998     2.885
   0.68825  0.32303  0.10727  1.37882  0.002716  0.000970  0.003641     2.800
   0.70393  0.30737  0.10654  1.38470  0.002577  0.000935  0.004075     2.757
   0.71975  0.29158  0.10557  1.38953  0.002472  0.000902  0.004360     2.739
   0.73559  0.27578  0.10439  1.39517  0.002335  0.000867  0.004901     2.694
   0.75115  0.26028  0.10302  1.40109  0.002173  0.000829  0.005761     2.623
   0.76650  0.24502  0.10139  1.40397  0.002066  0.000798  0.006297     2.591
   0.78192  0.22972  0.09944  1.40455  0.002002  0.000771  0.006462     2.596
   0.79744  0.21436  0.09725  1.40589  0.001919  0.000742  0.006811     2.588
   0.81279  0.19920  0.09484  1.40796  0.001809  0.000709  0.007545     2.551
   0.82793  0.18429  0.09217  1.40734  0.001732  0.000681  0.007940     2.544
   0.84302  0.16950  0.08922  1.40595  0.001662  0.000653  0.008244     2.546
   0.85806  0.15481  0.08599  1.40449  0.001592  0.000624  0.008553     2.551
   0.87291  0.14036  0.08253  1.40361  0.001506  0.000592  0.009117     2.543
   0.88737  0.12638  0.07886  1.40274  0.001401  0.000559  0.010175     2.508
   0.90140  0.11290  0.07496  1.39846  0.001318  0.000528  0.010939     2.494
   0.91519  0.09977  0.07076  1.39141  0.001273  0.000502  0.010740     2.538
   0.92848  0.08721  0.06643  1.38888  0.001181  0.000467  0.011697     2.528
   0.94079  0.07568  0.06209  1.38603  0.001049  0.000430  0.014376     2.442
   0.95221  0.06515  0.05767  1.37199  0.000990  0.000404  0.015004     2.448
   0.96284  0.05550  0.05322  1.35778  0.000955  0.000381  0.014413     2.510
   0.97241  0.04692  0.04898  1.35104  0.000880  0.000350  0.015456     2.516
   0.98081  0.03952  0.04501  1.34467  0.000789  0.000319  0.017859     2.478
   0.98816  0.03319  0.04127  1.33281  0.000715  0.000292  0.020123     2.450
   0.99463  0.02777  0.03774  1.31627  0.000652  0.000268  0.022244     2.430
   1.00034  0.02313  0.03441  1.29564  0.000595  0.000247  0.024468     2.410
   1.00542  0.01915  0.03125  1.27040  0.000545  0.000228  0.026707     2.391
   1.00996  0.01574  0.02825  1.24048  0.000503  0.000211  0.028491     2.382
   1.01405  0.01281  0.02541  1.20687  0.000462  0.000195  0.030769     2.364
   1.01775  0.01030  0.02269  1.16643  0.000422  0.000181  0.033568     2.332
   1.02112  0.00816  0.02007  1.11682  0.000393  0.000169  0.034800     2.321
   1.02423  0.00634  0.01756  1.06233  0.000368  0.000159  0.035558     2.316
   1.02710  0.00481  0.01513  1.00124  0.000340  0.000149  0.037499     2.282
   1.02975  0.00353  0.01281  0.93038  0.000324  0.000142  0.036435     2.284
   1.03221  0.00250  0.01057  0.85613  0.000305  0.000135  0.036273     2.264
   1.03452  0.00166  0.00842  0.77542  0.000294  0.000130  0.034064     2.266
   1.03670  0.00100  0.00634  0.69194  0.000280  0.000124  0.032142     2.257
   1.03878  0.00049  0.00433  0.60427  0.000268  0.000118  0.028963     2.270
   1.04077  0.00014  0.00237  0.51313  0.000247  0.000109  0.026487     2.278
   1.04268 -0.00001  0.00047  0.40532  0.000220  0.000097  0.023934     2.259
   1.04452  0.00009 -0.00138  0.26702  0.000204  0.000091  0.017525     2.227
   1.04638  0.00049 -0.00318  0.11126  0.000206  0.000092  0.007204     2.230
   1.04830  0.00119 -0.00498 -0.04832  0.000206  0.000092  0.003129     2.230
   1.05035  0.00220 -0.00676 -0.19585  0.000229  0.000102  0.011252     2.243
   1.05254  0.00351 -0.00851 -0.31866  0.000256  0.000113  0.016264     2.254
   1.05487  0.00512 -0.01021 -0.42680  0.000275  0.000122  0.020308     2.251
   1.05738  0.00701 -0.01184 -0.51615  0.000309  0.000135  0.021075     2.289
   1.06008  0.00920 -0.01343 -0.58010  0.000359  0.000154  0.019717     2.326
   1.06301  0.01168 -0.01499 -0.63533  0.000391  0.000170  0.020282     2.301
   1.06622  0.01448 -0.01656 -0.68232  0.000437  0.000187  0.018924     2.332
   1.06978  0.01766 -0.01815 -0.72265  0.000480  0.000206  0.018188     2.336
   1.07377  0.02129 -0.01981 -0.75908  0.000525  0.000224  0.017329     2.343
   1.07825  0.02543 -0.02154 -0.79559  0.000561  0.000241  0.017219     2.330
   1.08332  0.03017 -0.02333 -0.83144  0.000603  0.000258  0.016702     2.334
   1.08907  0.03561 -0.02519 -0.86369  0.000656  0.000279  0.015654     2.353
   1.09564  0.04190 -0.02708 -0.89207  0.000716  0.000302  0.014554     2.371
   1.10320  0.04922 -0.02900 -0.91548  0.000792  0.000330  0.013147     2.398
   1.11196  0.05776 -0.03093 -0.93250  0.000889  0.000365  0.011467     2.437
   1.12207  0.06768 -0.03288 -0.94705  0.000981  0.000401  0.010486     2.444
   1.13350  0.07895 -0.03481 -0.96118  0.001067  0.000438  0.009829     2.439
   1.14613  0.09144 -0.03664 -0.97246  0.001172  0.000477  0.008887     2.457
   1.15994  0.10515 -0.03835 -0.97958  0.001297  0.000521  0.007815     2.489
   1.17469  0.11981 -0.03996 -0.98799  0.001380  0.000559  0.007588     2.467
   1.18993  0.13498 -0.04141 -0.99605  0.001466  0.000596  0.007237     2.462
   1.20552  0.15051 -0.04267 -1.00286  0.001559  0.000632  0.006820     2.467
   1.22143  0.16639 -0.04375 -1.00773  0.001663  0.000669  0.006311     2.484
   1.23764  0.18258 -0.04467 -1.01158  0.001761  0.000706  0.005913     2.495
   1.25400  0.19892 -0.04546 -1.01591  0.001836  0.000739  0.005747     2.486
   1.27036  0.21526 -0.04609 -1.02002  0.001910  0.000770  0.005571     2.482
   1.28677  0.23166 -0.04656 -1.02263  0.002006  0.000803  0.005234     2.497
   1.30335  0.24824 -0.04689 -1.02459  0.002099  0.000836  0.004945     2.510
   1.32002  0.26491 -0.04711 -1.02670  0.002176  0.000867  0.004779     2.510
   1.33663  0.28153 -0.04721 -1.02896  0.002243  0.000895  0.004668     2.506
   1.35321  0.29810 -0.04717 -1.03028  0.002329  0.000926  0.004451     2.516
   1.36986  0.31475 -0.04699 -1.03087  0.002423  0.000957  0.004208     2.532
   1.38656  0.33145 -0.04670 -1.03132  0.002510  0.000988  0.004022     2.541
   1.40323  0.34811 -0.04629 -1.03151  0.002595  0.001018  0.003853     2.550
   1.41985  0.36473 -0.04576 -1.03111  0.002691  0.001049  0.003650     2.566
   1.43647  0.38133 -0.04510 -1.02993  0.002802  0.001082  0.003406     2.590
   1.45309  0.39793 -0.04431 -1.02814  0.002924  0.001116  0.003154     2.619
   1.46972  0.41453 -0.04339 -1.02560  0.003063  0.001153  0.002875     2.656
   1.48633  0.43111 -0.04234 -1.02234  0.003222  0.001192  0.002576     2.702
   1.50291  0.44765 -0.04116 -1.01821  0.003413  0.001235  0.002239     2.764
   1.51945  0.46414 -0.03985 -1.01326  0.003646  0.001280  0.001866     2.848
   1.53596  0.48059 -0.03840 -1.00745  0.003947  0.001331  0.001442     2.966
   1.55247  0.49701 -0.03680 -1.00105  0.004340  0.001384  0.000981     3.135
   1.56903  0.51348 -0.03504 -0.99463  0.004849  0.001438  0.000522     3.372
   1.58574  0.53008 -0.03313 -0.98884  0.005490  0.001488  0.000122     3.690
   1.60264  0.54687 -0.03109 -0.98402  0.006244  0.001531 -0.000154     4.078
   1.61973  0.56382 -0.02896 -0.97993  0.007090  0.001570 -0.000299     4.517
   1.63695  0.58089 -0.02675 -0.97652  0.008008  0.001604 -0.000347     4.993
   1.65426  0.59806 -0.02449 -0.97377  0.008980  0.001634 -0.000348     5.496
   1.67164  0.61529 -0.02221 -0.97155  0.009980  0.001660 -0.000333     6.012
   1.68905  0.63255 -0.01994 -0.96973  0.010979  0.001683 -0.000318     6.524
   1.70644  0.64979 -0.01769 -0.96821  0.011966  0.001703 -0.000306     7.025
   1.72377  0.66698 -0.01547 -0.96690  0.012928  0.001722 -0.000296     7.508
   1.74101  0.68409 -0.01330 -0.96576  0.013847  0.001739 -0.000289     7.962
   1.75815  0.70109 -0.01119 -0.96472  0.014702  0.001756 -0.000283     8.375
   1.77520  0.71802 -0.00917 -0.96376  0.015477  0.001772 -0.000278     8.736
   1.79217  0.73488 -0.00723 -0.96283  0.016159  0.001788 -0.000273     9.039
   1.80907  0.75168 -0.00538 -0.96191  0.016736  0.001804 -0.000269     9.275
   1.82588  0.76841 -0.00365 -0.96100  0.017200  0.001822 -0.000266     9.443
   1.84259  0.78504 -0.00203 -0.96005  0.017524  0.001840 -0.000263     9.525
   1.85920  0.80157 -0.00054 -0.95906  0.017695  0.001859 -0.000260     9.517
   1.87568  0.81800  0.00080 -0.95800  0.017687  0.001881 -0.000257     9.404
   1.89204  0.83432  0.00198 -0.95685  0.017471  0.001904 -0.000254     9.174
   1.90829  0.85054  0.00299 -0.95555  0.017005  0.001931 -0.000252     8.808
   1.92442  0.86665  0.00381 -0.95406  0.016222  0.001960 -0.000251     8.275
   1.94041  0.88262  0.00443 -0.92600  0.015294  0.002569 -0.000184     5.953
   1.95619  0.89840  0.00486 -0.89535  0.014100  0.003265 -0.000108     4.319
   1.97170  0.91391  0.00506 -0.87033  0.012747  0.003850  0.000202     3.311
   1.98685  0.92905  0.00502 -0.85410  0.011361  0.004234  0.000624     2.683
   2.00150  0.94370  0.00473 -0.84599  0.010046  0.004427  0.001084     2.269
   2.01546  0.95766  0.00418 -0.84514  0.008850  0.004459  0.001561     1.985
   2.02853  0.97070  0.00337 -0.85081  0.007771  0.004361  0.002175     1.782
   2.04056  0.98268  0.00230 -0.86330  0.006762  0.004152  0.002915     1.629
   2.05143  0.99347  0.00100 -0.88481  0.005754  0.003826  0.003834     1.504
   2.05803  1.00000  0.00000 -0.88569  0.005655  0.003829  0.004011     1.477
   2.05803  1.00010 -0.00002  0.88569  0.034433  0.015752  0.000000     2.186
   2.06467  1.00659 -0.00142  0.89167  0.031446  0.015322  0.000000     2.052
   2.07243  1.01423 -0.00278  0.89434  0.029818  0.015139  0.000000     1.970
   2.08150  1.02318 -0.00422  0.89725  0.028242  0.014947  0.000000     1.890
   2.09210  1.03367 -0.00574  0.90059  0.026683  0.014735  0.000000     1.811
   2.10448  1.04594 -0.00737  0.90455  0.025120  0.014493  0.000000     1.733
   2.11896  1.06031 -0.00912  0.90924  0.023563  0.014219  0.000000     1.657
   2.13587  1.07713 -0.01098  0.91466  0.022037  0.013916  0.000000     1.584
   2.15564  1.09680 -0.01298  0.92077  0.020569  0.013591  0.000000     1.513
   2.17875  1.11980 -0.01510  0.92739  0.019188  0.013257  0.000000     1.447
   2.20575  1.14671 -0.01734  0.93433  0.017917  0.012923  0.000000     1.386
   2.23731  1.17819 -0.01970  0.94135  0.016769  0.012602  0.000000     1.331
   2.27420  1.21499 -0.02215  0.94823  0.015751  0.012303  0.000000     1.280
   2.31730  1.25802 -0.02469  0.95479  0.014859  0.012030  0.000000     1.235
   2.36768  1.30833 -0.02727  0.96090  0.014087  0.011786  0.000000     1.195
   2.42656  1.36716 -0.02985  0.96651  0.013425  0.011570  0.000000     1.160
   2.49537  1.43592 -0.03238  0.97158  0.012865  0.011381  0.000000     1.130
   2.57580  1.51631 -0.03479  0.97609  0.012396  0.011218  0.000000     1.105
   2.66978  1.61027 -0.03699  0.98006  0.012009  0.011078  0.000000     1.084
   2.77963  1.72010 -0.03888  0.98352  0.011692  0.010959  0.000000     1.067
   2.90801  1.84847 -0.04031  0.98647  0.011436  0.010858  0.000000     1.053
   3.05804  1.99850 -0.04115  0.98951  0.011213  0.010757  0.000000     1.042
