#    s        x        y     Ue/Vinf    Dstar     Theta      Cf       H
   0.00000  1.00000  0.00000  0.89303  0.029332  0.010834  0.000339     2.708
   0.00667  0.99364  0.00201  0.89938  0.027200  0.010481  0.000430     2.595
   0.01801  0.98283  0.00544  0.90890  0.025044  0.009987  0.000522     2.508
   0.03089  0.97055  0.00931  0.92050  0.022915  0.009433  0.000626     2.429
   0.04491  0.95712  0.01335  0.93343  0.021060  0.008866  0.000720     2.375
   0.05974  0.94286  0.01740  0.94696  0.019585  0.008320  0.000783     2.354
   0.07527  0.92786  0.02141  0.96067  0.018502  0.007808  0.000798     2.369
   0.09142  0.91220  0.02541  0.97479  0.017738  0.007317  0.000762     2.424
   0.10802  0.89609  0.02942  0.98975  0.017225  0.006829  0.000675     2.522
   0.12488  0.87971  0.03341  1.00612  0.016929  0.006328  0.000541     2.675
   0.14188  0.86318  0.03738  1.02476  0.016830  0.005792  0.000376     2.906
   0.15896  0.84656  0.04130  1.04688  0.016894  0.005194  0.000209     3.252
   0.17607  0.82989  0.04517  1.07411  0.017076  0.004507  0.000012     3.788
   0.19318  0.81321  0.04899  1.10797  0.017298  0.003717 -0.000154     4.654
   0.21029  0.79652  0.05273  1.14398  0.017502  0.002944 -0.000222     5.945
   0.22743  0.77978  0.05643  1.18431  0.017546  0.002153 -0.000285     8.148
   0.24453  0.76308  0.06007  1.21376  0.017386  0.001633 -0.000368    10.649
   0.26151  0.74647  0.06361  1.21479  0.017102  0.001617 -0.000373    10.575
   0.27839  0.72994  0.06704  1.21570  0.016580  0.001604 -0.000377    10.334
   0.29522  0.71344  0.07036  1.21655  0.015898  0.001593 -0.000382     9.980
   0.31203  0.69694  0.07357  1.21739  0.015106  0.001582 -0.000387     9.547
   0.32881  0.68046  0.07667  1.21827  0.014235  0.001572 -0.000393     9.057
   0.34552  0.66401  0.07965  1.21922  0.013313  0.001561 -0.000400     8.530
   0.36216  0.64761  0.08250  1.22029  0.012367  0.001549 -0.000409     7.984
   0.37877  0.63123  0.08521  1.22156  0.011428  0.001536 -0.000421     7.442
   0.39539  0.61480  0.08779  1.22308  0.010501  0.001521 -0.000435     6.906
   0.41202  0.59836  0.09025  1.22491  0.009586  0.001504 -0.000453     6.376
   0.42857  0.58198  0.09257  1.22715  0.008699  0.001484 -0.000475     5.862
   0.44503  0.56566  0.09473  1.22990  0.007869  0.001461 -0.000491     5.384
   0.46148  0.54933  0.09674  1.23329  0.007115  0.001436 -0.000487     4.957
   0.47798  0.53293  0.09860  1.23740  0.006422  0.001406 -0.000435     4.567
   0.49446  0.51655  0.10033  1.24222  0.005775  0.001374 -0.000298     4.204
   0.51082  0.50026  0.10190  1.24766  0.005199  0.001339 -0.000053     3.883
   0.52710  0.48404  0.10328  1.25385  0.004715  0.001301  0.000272     3.625
   0.54339  0.46779  0.10449  1.26071  0.004312  0.001260  0.000648     3.422
   0.55971  0.45151  0.10554  1.26804  0.003966  0.001217  0.001064     3.259
   0.57600  0.43525  0.10643  1.27568  0.003657  0.001173  0.001535     3.117
   0.59218  0.41907  0.10713  1.28325  0.003393  0.001130  0.002022     3.002
   0.60829  0.40298  0.10765  1.29038  0.003174  0.001089  0.002483     2.915
   0.62434  0.38693  0.10796  1.29699  0.002987  0.001049  0.002921     2.847
   0.64042  0.37085  0.10808  1.30289  0.002832  0.001012  0.003303     2.799
   0.65651  0.35476  0.10800  1.30856  0.002682  0.000975  0.003726     2.751
   0.67249  0.33878  0.10774  1.31416  0.002524  0.000937  0.004275     2.694
   0.68825  0.32303  0.10727  1.31896  0.002375  0.000900  0.004874     2.638
   0.70393  0.30737  0.10654  1.32158  0.002275  0.000870  0.005230     2.616
   0.71975  0.29158  0.10557  1.32312  0.002197  0.000841  0.005440     2.613
   0.73559  0.27578  0.10439  1.32551  0.002089  0.000808  0.005920     2.585
   0.75115  0.26028  0.10302  1.32817  0.001953  0.000773  0.006775     2.526
   0.76650  0.24502  0.10139  1.32737  0.001861  0.000745  0.007306     2.500
   0.78192  0.22972  0.09944  1.32369  0.001814  0.000722  0.007359     2.514
   0.79744  0.21436  0.09725  1.32134  0.001738  0.000694  0.007743     2.505
   0.81279  0.19920  0.09484  1.31894  0.001644  0.000664  0.008426     2.477
   0.82793  0.18429  0.09217  1.31391  0.001571  0.000637  0.008883     2.466
   0.84302  0.16950  0.08922  1.30724  0.001510  0.000612  0.009151     2.470
   0.85806  0.15481  0.08599  1.30028  0.001448  0.000585  0.009438     2.476
   0.87291  0.14036  0.08253  1.29339  0.001375  0.000555  0.009901     2.474
   0.88737  0.12638  0.07886  1.28650  0.001273  0.000523  0.011069     2.436
   0.90140  0.11290  0.07496  1.27451  0.001198  0.000495  0.011827     2.421
   0.91519  0.09977  0.07076  1.25910  0.001162  0.000471  0.011491     2.467
   0.92848  0.08721  0.06643  1.24838  0.001077  0.000438  0.012364     2.461
   0.94079  0.07568  0.06209  1.23585  0.000959  0.000402  0.014892     2.383
   0.95221  0.06515  0.05767  1.21097  0.000900  0.000379  0.015658     2.376
   0.96284  0.05550  0.05322  1.18455  0.000869  0.000358  0.015010     2.430
   0.97241  0.04692  0.04898  1.16542  0.000799  0.000329  0.016040     2.432
   0.98081  0.03952  0.04501  1.14495  0.000721  0.000300  0.017965     2.404
   0.98816  0.03319  0.04127  1.11885  0.000656  0.000275  0.019604     2.387
   0.99463  0.02777  0.03774  1.08810  0.000598  0.000253  0.021399     2.365
   1.00034  0.02313  0.03441  1.05164  0.000549  0.000234  0.022872     2.349
   1.00542  0.01915  0.03125  1.01050  0.000506  0.000216  0.024059     2.339
   1.00996  0.01574  0.02825  0.96523  0.000467  0.000201  0.025112     2.329
   1.01405  0.01281  0.02541  0.91535  0.000431  0.000186  0.026049     2.320
   1.01775  0.01030  0.02269  0.85855  0.000395  0.000173  0.027371     2.291
   1.02112  0.00816  0.02007  0.79329  0.000372  0.000162  0.026860     2.293
   1.02423  0.00634  0.01756  0.72251  0.000344  0.000152  0.027092     2.267
   1.02710  0.00481  0.01513  0.64558  0.000328  0.000143  0.024855     2.290
   1.02975  0.00353  0.01281  0.56179  0.000298  0.000134  0.025093     2.230
   1.03221  0.00250  0.01057  0.46774  0.000296  0.000131  0.020441     2.263
   1.03452  0.00166  0.00842  0.37722  0.000274  0.000121  0.017958     2.255
   1.03670  0.00100  0.00634  0.27220  0.000261  0.000118  0.014158     2.210
   1.03878  0.00049  0.00433  0.16641  0.000262  0.000116  0.008230     2.261
   1.04077  0.00014  0.00237  0.04999  0.000215  0.000096  0.003100     2.230
   1.04268 -0.00001  0.00047 -0.09470  0.000215  0.000096  0.005875     2.230
   1.04452  0.00009 -0.00138 -0.24585  0.000204  0.000092  0.016233     2.220
   1.04638  0.00049 -0.00318 -0.40598  0.000201  0.000090  0.026815     2.232
   1.04830  0.00119 -0.00498 -0.54627  0.000222  0.000098  0.031615     2.272
   1.05035  0.00220 -0.00676 -0.66119  0.000245  0.000108  0.034629     2.274
   1.05254  0.00351 -0.00851 -0.76151  0.000266  0.000117  0.036387     2.281
   1.05487  0.00512 -0.01021 -0.83981  0.000300  0.000129  0.034302     2.320
   1.05738  0.00701 -0.01184 -0.89442  0.000344  0.000146  0.030684     2.359
   1.06008  0.00920 -0.01343 -0.92889  0.000400  0.000166  0.026136     2.408
   1.06301  0.01168 -0.01499 -0.95746  0.000442  0.000185  0.024714     2.394
   1.06622  0.01448 -0.01656 -0.98035  0.000494  0.000204  0.022129     2.417
   1.06978  0.01766 -0.01815 -0.99836  0.000549  0.000225  0.019966     2.434
   1.07377  0.02129 -0.01981 -1.01553  0.000596  0.000246  0.018797     2.428
   1.07825  0.02543 -0.02154 -1.03521  0.000634  0.000264  0.018486     2.403
   1.08332  0.03017 -0.02333 -1.05365  0.000685  0.000284  0.017259     2.412
   1.08907  0.03561 -0.02519 -1.07186  0.000734  0.000305  0.016402     2.410
   1.09564  0.04190 -0.02708 -1.08586  0.000807  0.000330  0.014639     2.443
   1.10320  0.04922 -0.02900 -1.09528  0.000894  0.000361  0.012839     2.479
   1.11196  0.05776 -0.03093 -1.09870  0.001008  0.000398  0.010763     2.533
   1.12207  0.06768 -0.03288 -1.10018  0.001117  0.000438  0.009529     2.552
   1.13350  0.07895 -0.03481 -1.10221  0.001214  0.000477  0.008852     2.545
   1.14613  0.09144 -0.03664 -1.10248  0.001334  0.000520  0.007894     2.564
   1.15994  0.10515 -0.03835 -1.10012  0.001475  0.000567  0.006843     2.599
   1.17469  0.11981 -0.03996 -1.09965  0.001572  0.000609  0.006560     2.580
   1.18993  0.13498 -0.04141 -1.10018  0.001663  0.000649  0.006317     2.564
   1.20552  0.15051 -0.04267 -1.10005  0.001768  0.000688  0.005903     2.569
   1.22143  0.16639 -0.04375 -1.09919  0.001880  0.000728  0.005470     2.582
   1.23764  0.18258 -0.04467 -1.09800  0.001989  0.000767  0.005106     2.592
   1.25400  0.19892 -0.04546 -1.09731  0.002080  0.000804  0.004896     2.589
   1.27036  0.21526 -0.04609 -1.09703  0.002162  0.000837  0.004749     2.582
   1.28677  0.23166 -0.04656 -1.09569  0.002269  0.000873  0.004439     2.598
   1.30335  0.24824 -0.04689 -1.09395  0.002377  0.000910  0.004152     2.614
   1.32002  0.26491 -0.04711 -1.09257  0.002468  0.000943  0.003981     2.617
   1.33663  0.28153 -0.04721 -1.09151  0.002548  0.000975  0.003866     2.614
   1.35321  0.29810 -0.04717 -1.08967  0.002652  0.001009  0.003642     2.629
   1.36986  0.31475 -0.04699 -1.08733  0.002767  0.001044  0.003397     2.650
   1.38656  0.33145 -0.04670 -1.08478  0.002881  0.001079  0.003179     2.670
   1.40323  0.34811 -0.04629 -1.08203  0.002996  0.001114  0.002973     2.691
   1.41985  0.36473 -0.04576 -1.07879  0.003128  0.001150  0.002740     2.720
   1.43647  0.38133 -0.04510 -1.07480  0.003288  0.001189  0.002450     2.765
   1.45309  0.39793 -0.04431 -1.07022  0.003473  0.001230  0.002140     2.823
   1.46972  0.41453 -0.04339 -1.06497  0.003698  0.001275  0.001792     2.901
   1.48633  0.43111 -0.04234 -1.05920  0.003968  0.001321  0.001423     3.003
   1.50291  0.44765 -0.04116 -1.05305  0.004303  0.001370  0.001030     3.141
   1.51945  0.46414 -0.03985 -1.04678  0.004731  0.001420  0.000622     3.332
   1.53596  0.48059 -0.03840 -1.04092  0.005264  0.001467  0.000242     3.588
   1.55247  0.49701 -0.03680 -1.03584  0.005939  0.001510 -0.000076     3.934
   1.56903  0.51348 -0.03504 -1.03161  0.006761  0.001547 -0.000281     4.371
   1.58574  0.53008 -0.03313 -1.02808  0.007726  0.001580 -0.000364     4.891
   1.60264  0.54687 -0.03109 -1.02532  0.008805  0.001607 -0.000372     5.478
   1.61973  0.56382 -0.02896 -1.02322  0.009963  0.001630 -0.000355     6.111
   1.63695  0.58089 -0.02675 -1.02160  0.011168  0.001649 -0.000337     6.771
   1.65426  0.59806 -0.02449 -1.02034  0.012397  0.001665 -0.000324     7.444
   1.67164  0.61529 -0.02221 -1.01932  0.013616  0.001679 -0.000314     8.109
   1.68905  0.63255 -0.01994 -1.01845  0.014795  0.001691 -0.000307     8.747
   1.70644  0.64979 -0.01769 -1.01769  0.015912  0.001703 -0.000302     9.345
   1.72377  0.66698 -0.01547 -1.01700  0.016958  0.001714 -0.000297     9.895
   1.74101  0.68409 -0.01330 -1.01635  0.017909  0.001725 -0.000293    10.383
   1.75815  0.70109 -0.01119 -1.01569  0.018738  0.001736 -0.000290    10.792
   1.77520  0.71802 -0.00917 -1.01502  0.019426  0.001749 -0.000286    11.108
   1.79217  0.73488 -0.00723 -1.01431  0.019952  0.001763 -0.000283    11.318
   1.80907  0.75168 -0.00538 -1.01354  0.020290  0.001779 -0.000280    11.408
   1.82588  0.76841 -0.00365 -1.01268  0.020413  0.001797 -0.000277    11.362
   1.84259  0.78504 -0.00203 -1.01169  0.020259  0.001818 -0.000274    11.146
   1.85920  0.80157 -0.00054 -1.00883  0.019774  0.001883 -0.000224    10.504
   1.87568  0.81800  0.00080 -0.97335  0.019244  0.002762 -0.000190     6.966
   1.89204  0.83432  0.00198 -0.94176  0.018366  0.003599 -0.000151     5.103
   1.90829  0.85054  0.00299 -0.91168  0.017306  0.004444 -0.000014     3.895
   1.92442  0.86665  0.00381 -0.88847  0.016131  0.005124  0.000229     3.148
   1.94041  0.88262  0.00443 -0.87202  0.014952  0.005620  0.000498     2.660
   1.95619  0.89840  0.00486 -0.86133  0.013831  0.005947  0.000799     2.326
   1.97170  0.91391  0.00506 -0.85537  0.012798  0.006134  0.001168     2.087
   1.98685  0.92905  0.00502 -0.85327  0.011851  0.006208  0.001556     1.909
   2.00150  0.94370  0.00473 -0.85448  0.010979  0.006192  0.001956     1.773
   2.01546  0.95766  0.00418 -0.85876  0.010158  0.006098  0.002368     1.666
   2.02853  0.97070  0.00337 -0.86631  0.009358  0.005931  0.002804     1.578
   2.04056  0.98268  0.00230 -0.87795  0.008535  0.005680  0.003295     1.503
   2.05143  0.99347  0.00100 -0.89555  0.007638  0.005327  0.003898     1.434
   2.05803  1.00000  0.00000 -0.89303  0.007688  0.005394  0.003920     1.425
   2.05803  1.00010 -0.00002  0.89303  0.037020  0.016228  0.000000     2.281
   2.06467  1.00659 -0.00142  0.89775  0.033831  0.015872  0.000000     2.131
   2.07243  1.01422 -0.00281  0.89948  0.032103  0.015748  0.000000     2.039
   2.08150  1.02317 -0.00429  0.90147  0.030417  0.015609  0.000000     1.949
   2.09210  1.03365 -0.00587  0.90392  0.028735  0.015445  0.000000     1.860
   2.10448  1.04591 -0.00757  0.90706  0.027031  0.015242  0.000000     1.773
   2.11896  1.06027 -0.00943  0.91103  0.025319  0.014996  0.000000     1.688
   2.13587  1.07706 -0.01144  0.91590  0.023627  0.014707  0.000000     1.606
   2.15564  1.09671 -0.01362  0.92162  0.021990  0.014384  0.000000     1.529
   2.17875  1.11970 -0.01599  0.92806  0.020446  0.014039  0.000000     1.456
   2.20575  1.14658 -0.01856  0.93498  0.019025  0.013686  0.000000     1.390
   2.23731  1.17802 -0.02133  0.94209  0.017748  0.013342  0.000000     1.330
   2.27420  1.21478 -0.02431  0.94913  0.016621  0.013018  0.000000     1.277
   2.31730  1.25777 -0.02751  0.95586  0.015643  0.012723  0.000000     1.230
   2.36768  1.30803 -0.03094  0.96213  0.014805  0.012459  0.000000     1.188
   2.42656  1.36680 -0.03458  0.96784  0.014096  0.012227  0.000000     1.153
   2.49537  1.43550 -0.03845  0.97297  0.013503  0.012026  0.000000     1.123
   2.57580  1.51582 -0.04253  0.97751  0.013012  0.011853  0.000000     1.098
   2.66978  1.60971 -0.04681  0.98147  0.012612  0.011706  0.000000     1.077
   2.77963  1.71947 -0.05126  0.98486  0.012288  0.011583  0.000000     1.061
   2.90801  1.84776 -0.05588  0.98773  0.012031  0.011481  0.000000     1.048
   3.05804  1.99772 -0.06061  0.99066  0.011808  0.011378  0.000000     1.038
