#    s        x        y     Ue/Vinf    Dstar     Theta      Cf       H
   0.00000  1.00000  0.00000  1.01400  0.087788  0.013028 -0.000085     6.738
   0.00668  0.99360  0.00192  1.01618  0.084441  0.012788 -0.000087     6.603
   0.01807  0.98272  0.00530  1.02051  0.081624  0.012329 -0.000091     6.620
   0.03106  0.97032  0.00914  1.02578  0.078684  0.011792 -0.000095     6.672
   0.04516  0.95680  0.01317  1.03193  0.075813  0.011194 -0.000100     6.773
   0.06006  0.94246  0.01720  1.03894  0.073101  0.010544 -0.000106     6.933
   0.07565  0.92739  0.02118  1.04686  0.070562  0.009844 -0.000114     7.168
   0.09186  0.91167  0.02516  1.05577  0.068143  0.009097 -0.000123     7.491
   0.10852  0.89549  0.02915  1.06571  0.065779  0.008307 -0.000134     7.919
   0.12544  0.87905  0.03313  1.07673  0.063461  0.007480 -0.000148     8.484
   0.14250  0.86245  0.03708  1.08896  0.061179  0.006617 -0.000166     9.245
   0.15964  0.84577  0.04099  1.10276  0.058911  0.005706 -0.000192    10.324
   0.17681  0.82904  0.04484  1.11869  0.056621  0.004727 -0.000232    11.979
   0.19398  0.81229  0.04864  1.13765  0.054250  0.003649 -0.000285    14.867
   0.21115  0.79553  0.05238  1.16252  0.051645  0.002347 -0.000297    22.000
   0.22833  0.77875  0.05606  1.16958  0.049569  0.002017 -0.000545    24.570
   0.24546  0.76200  0.05967  1.16966  0.047547  0.002017 -0.000546    23.572
   0.26249  0.74535  0.06319  1.16971  0.045396  0.002018 -0.000547    22.491
   0.27941  0.72877  0.06660  1.16974  0.043176  0.002021 -0.000547    21.369
   0.29629  0.71222  0.06990  1.16976  0.040912  0.002023 -0.000548    20.221
   0.31313  0.69568  0.07308  1.16977  0.038619  0.002026 -0.000548    19.060
   0.32994  0.67915  0.07616  1.16979  0.036318  0.002029 -0.000549    17.900
   0.34670  0.66266  0.07911  1.16981  0.034019  0.002031 -0.000550    16.746
   0.36339  0.64620  0.08193  1.16986  0.031738  0.002033 -0.000552    15.609
   0.38005  0.62976  0.08462  1.16994  0.029499  0.002034 -0.000554    14.501
   0.39672  0.61329  0.08718  1.17008  0.027304  0.002034 -0.000558    13.425
   0.41338  0.59681  0.08962  1.17029  0.025143  0.002032 -0.000562    12.374
   0.42997  0.58038  0.09191  1.17059  0.023037  0.002028 -0.000568    11.359
   0.44649  0.56400  0.09406  1.17103  0.021016  0.002022 -0.000576    10.395
   0.46301  0.54760  0.09605  1.17165  0.019075  0.002012 -0.000586     9.478
   0.47954  0.53117  0.09790  1.17251  0.017223  0.002000 -0.000600     8.613
   0.49603  0.51477  0.09961  1.17367  0.015438  0.001983 -0.000619     7.784
   0.51242  0.49845  0.10115  1.17524  0.013786  0.001962 -0.000644     7.026
   0.52875  0.48218  0.10252  1.17733  0.012250  0.001936 -0.000678     6.327
   0.54509  0.46588  0.10371  1.18011  0.010854  0.001904 -0.000719     5.701
   0.56144  0.44957  0.10475  1.18373  0.009569  0.001865 -0.000734     5.130
   0.57774  0.43329  0.10561  1.18834  0.008422  0.001820 -0.000667     4.627
   0.59394  0.41711  0.10630  1.19398  0.007406  0.001769 -0.000429     4.186
   0.61007  0.40098  0.10679  1.20055  0.006548  0.001713  0.000015     3.823
   0.62617  0.38489  0.10708  1.20821  0.005821  0.001651  0.000655     3.527
   0.64227  0.36879  0.10718  1.21676  0.005225  0.001583  0.001413     3.300
   0.65836  0.35270  0.10708  1.22590  0.004709  0.001513  0.002311     3.112
   0.67432  0.33674  0.10680  1.23505  0.004274  0.001443  0.003291     2.961
   0.69010  0.32097  0.10629  1.24341  0.003926  0.001377  0.004236     2.851
   0.70583  0.30526  0.10554  1.25064  0.003650  0.001316  0.005089     2.773
   0.72167  0.28945  0.10454  1.25655  0.003433  0.001260  0.005778     2.725
   0.73747  0.27369  0.10335  1.26242  0.003198  0.001202  0.006745     2.661
   0.75302  0.25820  0.10195  1.26699  0.002983  0.001147  0.007784     2.601
   0.76841  0.24291  0.10027  1.26930  0.002814  0.001098  0.008632     2.562
   0.78386  0.22758  0.09831  1.26931  0.002696  0.001056  0.009097     2.554
   0.79934  0.21226  0.09610  1.26936  0.002555  0.001010  0.009853     2.530
   0.81467  0.19713  0.09366  1.26810  0.002423  0.000966  0.010617     2.509
   0.82983  0.18221  0.09095  1.26541  0.002299  0.000923  0.011376     2.491
   0.84493  0.16741  0.08797  1.26071  0.002204  0.000883  0.011775     2.495
   0.85995  0.15275  0.08473  1.25622  0.002085  0.000839  0.012545     2.484
   0.87475  0.13836  0.08125  1.25030  0.001973  0.000796  0.013263     2.479
   0.88915  0.12444  0.07757  1.24389  0.001832  0.000749  0.014699     2.447
   0.90314  0.11101  0.07364  1.23320  0.001730  0.000708  0.015492     2.443
   0.91683  0.09797  0.06946  1.22087  0.001644  0.000667  0.015824     2.463
   0.92993  0.08560  0.06517  1.20984  0.001522  0.000621  0.017116     2.452
   0.94206  0.07425  0.06087  1.19649  0.001364  0.000572  0.020202     2.386
   0.95332  0.06387  0.05649  1.17286  0.001292  0.000538  0.020614     2.400
   0.96371  0.05444  0.05215  1.15054  0.001218  0.000503  0.020923     2.424
   0.97301  0.04611  0.04801  1.13073  0.001119  0.000462  0.022453     2.422
   0.98119  0.03891  0.04412  1.10894  0.001011  0.000423  0.025082     2.393
   0.98837  0.03273  0.04046  1.08123  0.000922  0.000389  0.027379     2.371
   0.99470  0.02743  0.03701  1.04939  0.000857  0.000360  0.028424     2.378
   1.00030  0.02288  0.03375  1.01636  0.000778  0.000331  0.031002     2.355
   1.00527  0.01898  0.03066  0.97608  0.000709  0.000305  0.033665     2.324
   1.00973  0.01561  0.02774  0.92871  0.000663  0.000285  0.034236     2.324
   1.01375  0.01272  0.02495  0.87924  0.000614  0.000265  0.035209     2.318
   1.01739  0.01024  0.02228  0.82488  0.000566  0.000245  0.036232     2.307
   1.02073  0.00811  0.01971  0.76134  0.000519  0.000228  0.037763     2.270
   1.02380  0.00630  0.01724  0.69137  0.000497  0.000215  0.034390     2.311
   1.02664  0.00476  0.01485  0.61477  0.000442  0.000199  0.037399     2.220
   1.02926  0.00350  0.01255  0.52764  0.000446  0.000193  0.029261     2.311
   1.03171  0.00246  0.01033  0.44194  0.000389  0.000175  0.030575     2.219
   1.03400  0.00163  0.00819  0.33468  0.000401  0.000181  0.022537     2.216
   1.03618  0.00098  0.00612  0.24252  0.000393  0.000172  0.015661     2.283
   1.03826  0.00048  0.00410  0.13883  0.000327  0.000147  0.011322     2.229
   1.04024  0.00015  0.00214  0.00330  0.000309  0.000139  0.000285     2.230
   1.04215  0.00001  0.00024 -0.13651  0.000309  0.000139  0.011767     2.230
   1.04400  0.00012 -0.00161 -0.28294  0.000294  0.000133  0.025931     2.218
   1.04587  0.00052 -0.00343 -0.43392  0.000296  0.000132  0.038853     2.238
   1.04780  0.00123 -0.00524 -0.57679  0.000309  0.000137  0.049013     2.247
   1.04986  0.00223 -0.00703 -0.69070  0.000351  0.000153  0.049276     2.299
   1.05205  0.00354 -0.00879 -0.79060  0.000373  0.000165  0.054677     2.266
   1.05438  0.00514 -0.01048 -0.86209  0.000438  0.000186  0.046670     2.355
   1.05689  0.00705 -0.01212 -0.91477  0.000488  0.000208  0.044943     2.345
   1.05960  0.00924 -0.01371 -0.94627  0.000579  0.000238  0.036063     2.429
   1.06254  0.01171 -0.01530 -0.97137  0.000639  0.000265  0.034279     2.407
   1.06576  0.01450 -0.01689 -0.99518  0.000699  0.000291  0.032193     2.404
   1.06931  0.01766 -0.01852 -1.01502  0.000771  0.000318  0.029287     2.421
   1.07328  0.02125 -0.02021 -1.03414  0.000833  0.000345  0.027793     2.414
   1.07773  0.02534 -0.02197 -1.05211  0.000901  0.000373  0.026029     2.418
   1.08275  0.03002 -0.02380 -1.07121  0.000960  0.000399  0.025210     2.405
   1.08845  0.03539 -0.02569 -1.08819  0.001040  0.000430  0.023279     2.420
   1.09493  0.04158 -0.02763 -1.10256  0.001131  0.000464  0.021288     2.438
   1.10237  0.04875 -0.02960 -1.11302  0.001245  0.000504  0.018915     2.469
   1.11095  0.05710 -0.03158 -1.11954  0.001380  0.000552  0.016568     2.502
   1.12083  0.06678 -0.03358 -1.12109  0.001551  0.000608  0.014007     2.551
   1.13204  0.07781 -0.03556 -1.12339  0.001683  0.000662  0.013059     2.542
   1.14448  0.09010 -0.03747 -1.12337  0.001855  0.000723  0.011521     2.567
   1.15809  0.10359 -0.03926 -1.12247  0.002024  0.000785  0.010398     2.580
   1.17266  0.11806 -0.04096 -1.12196  0.002176  0.000844  0.009698     2.577
   1.18781  0.13314 -0.04249 -1.12238  0.002308  0.000900  0.009276     2.565
   1.20335  0.14862 -0.04385 -1.12266  0.002447  0.000954  0.008760     2.564
   1.21923  0.16445 -0.04503 -1.12275  0.002586  0.001008  0.008271     2.566
   1.23540  0.18059 -0.04604 -1.12154  0.002751  0.001064  0.007591     2.586
   1.25175  0.19691 -0.04691 -1.12212  0.002849  0.001110  0.007500     2.566
   1.26813  0.21328 -0.04763 -1.12173  0.002984  0.001159  0.007097     2.574
   1.28457  0.22971 -0.04819 -1.12158  0.003103  0.001206  0.006828     2.574
   1.30115  0.24629 -0.04860 -1.12087  0.003237  0.001253  0.006473     2.583
   1.31783  0.26296 -0.04890 -1.11981  0.003373  0.001300  0.006127     2.594
   1.33448  0.27961 -0.04908 -1.11959  0.003470  0.001342  0.006012     2.586
   1.35110  0.29624 -0.04912 -1.11857  0.003600  0.001387  0.005721     2.596
   1.36778  0.31291 -0.04903 -1.11737  0.003729  0.001431  0.005454     2.606
   1.38450  0.32963 -0.04882 -1.11602  0.003858  0.001475  0.005205     2.616
   1.40120  0.34633 -0.04849 -1.11440  0.003992  0.001519  0.004950     2.629
   1.41786  0.36298 -0.04803 -1.11231  0.004143  0.001564  0.004654     2.648
   1.43449  0.37961 -0.04745 -1.10968  0.004312  0.001612  0.004320     2.675
   1.45114  0.39623 -0.04673 -1.10669  0.004492  0.001661  0.003988     2.705
   1.46777  0.41285 -0.04588 -1.10277  0.004723  0.001715  0.003552     2.754
   1.48439  0.42943 -0.04489 -1.09855  0.004964  0.001770  0.003150     2.805
   1.50097  0.44597 -0.04378 -1.09370  0.005255  0.001829  0.002695     2.874
   1.51751  0.46247 -0.04253 -1.08818  0.005618  0.001892  0.002177     2.970
   1.53401  0.47892 -0.04112 -1.08230  0.006055  0.001957  0.001640     3.093
   1.55050  0.49532 -0.03957 -1.07625  0.006597  0.002025  0.001087     3.258
   1.56702  0.51176 -0.03785 -1.07039  0.007272  0.002091  0.000550     3.478
   1.58368  0.52831 -0.03597 -1.06512  0.008081  0.002152  0.000093     3.755
   1.60055  0.54506 -0.03395 -1.06059  0.009003  0.002206 -0.000232     4.081
   1.61761  0.56199 -0.03181 -1.05660  0.010015  0.002256 -0.000421     4.439
   1.63483  0.57906 -0.02959 -1.05313  0.011095  0.002302 -0.000503     4.819
   1.65218  0.59626 -0.02732 -1.05018  0.012220  0.002344 -0.000521     5.213
   1.66962  0.61355 -0.02500 -1.04770  0.013375  0.002381 -0.000512     5.616
   1.68712  0.63090 -0.02268 -1.04557  0.014519  0.002415 -0.000493     6.011
   1.70462  0.64824 -0.02037 -1.04374  0.015652  0.002447 -0.000474     6.398
   1.72205  0.66552 -0.01809 -1.04214  0.016750  0.002475 -0.000458     6.767
   1.73939  0.68272 -0.01585 -1.04071  0.017808  0.002502 -0.000446     7.117
   1.75663  0.69982 -0.01367 -1.03942  0.018803  0.002528 -0.000435     7.439
   1.77378  0.71684 -0.01156 -1.03822  0.019721  0.002552 -0.000426     7.727
   1.79085  0.73379 -0.00953 -1.03708  0.020554  0.002577 -0.000419     7.977
   1.80784  0.75067 -0.00760 -1.03599  0.021295  0.002601 -0.000412     8.188
   1.82474  0.76746 -0.00576 -1.03493  0.021930  0.002625 -0.000406     8.354
   1.84154  0.78418 -0.00404 -1.03388  0.022452  0.002650 -0.000401     8.473
   1.85823  0.80079 -0.00245 -1.03282  0.022847  0.002675 -0.000396     8.540
   1.87481  0.81731 -0.00100 -1.03175  0.023104  0.002702 -0.000391     8.551
   1.89126  0.83371  0.00030 -1.03064  0.023210  0.002730 -0.000387     8.503
   1.90759  0.85000  0.00143 -1.02949  0.023154  0.002759 -0.000384     8.393
   1.92381  0.86619  0.00238 -1.02828  0.022928  0.002789 -0.000381     8.220
   1.93987  0.88223  0.00314 -1.02700  0.022531  0.002822 -0.000378     7.985
   1.95573  0.89808  0.00370 -1.02564  0.021953  0.002856 -0.000377     7.688
   1.97131  0.91366  0.00404 -1.02420  0.021190  0.002891 -0.000376     7.329
   1.98653  0.92887  0.00415 -1.02267  0.020235  0.002928 -0.000378     6.910
   2.00124  0.94358  0.00401 -1.02105  0.019101  0.002966 -0.000381     6.440
   2.01526  0.95760  0.00361 -1.01938  0.017819  0.003004 -0.000388     5.933
   2.02837  0.97069  0.00296 -1.01770  0.016428  0.003039 -0.000391     5.405
   2.04040  0.98268  0.00205 -1.01611  0.015001  0.003071 -0.000370     4.884
   2.05125  0.99348  0.00090 -1.01472  0.013657  0.003097 -0.000287     4.409
   2.05783  1.00000  0.00000 -1.01400  0.014369  0.003111 -0.000161     4.619
   2.05783  1.00010 -0.00002  1.01400  0.102157  0.016139  0.000000     6.330
   2.06446  1.00660 -0.00133  1.00949  0.096223  0.016727  0.000000     5.752
   2.07221  1.01424 -0.00263  1.00444  0.093248  0.017374  0.000000     5.367
   2.08127  1.02319 -0.00400  0.99833  0.090248  0.018151  0.000000     4.972
   2.09186  1.03368 -0.00546  0.99084  0.087075  0.019099  0.000000     4.559
   2.10423  1.04595 -0.00703  0.98148  0.083586  0.020284  0.000000     4.121
   2.11869  1.06031 -0.00872  0.96940  0.079716  0.021818  0.000000     3.654
   2.13560  1.07712 -0.01054  0.95568  0.075325  0.023571  0.000000     3.196
   2.15535  1.09678 -0.01250  0.94400  0.070238  0.025065  0.000000     2.802
   2.17845  1.11977 -0.01460  0.93428  0.064590  0.026295  0.000000     2.456
   2.20544  1.14667 -0.01685  0.92754  0.058548  0.027128  0.000000     2.158
   2.23698  1.17813 -0.01923  0.92462  0.052389  0.027475  0.000000     1.907
   2.27386  1.21491 -0.02175  0.92590  0.046458  0.027331  0.000000     1.700
   2.31695  1.25793 -0.02439  0.93101  0.041094  0.026793  0.000000     1.534
   2.36732  1.30822 -0.02714  0.93882  0.036527  0.026027  0.000000     1.403
   2.42619  1.36703 -0.02998  0.94787  0.032833  0.025204  0.000000     1.303
   2.49501  1.43578 -0.03286  0.95687  0.029948  0.024439  0.000000     1.225
   2.57543  1.51615 -0.03574  0.96503  0.027742  0.023785  0.000000     1.166
   2.66944  1.61011 -0.03857  0.97205  0.026079  0.023248  0.000000     1.122
   2.77931  1.71995 -0.04127  0.97791  0.024837  0.022819  0.000000     1.088
   2.90773  1.84835 -0.04376  0.98269  0.023917  0.022480  0.000000     1.064
   3.05782  1.99843 -0.04594  0.98826  0.023112  0.022095  0.000000     1.046
