#    s        x        y     Ue/Vinf    Dstar     Theta      Cf       H
   0.00000  1.00000  0.00000  1.09201  0.192423  0.015865 -0.000057    12.129
   0.00668  0.99360  0.00192  1.09339  0.195740  0.015583 -0.000058    12.561
   0.01807  0.98272  0.00530  1.09510  0.191083  0.015233 -0.000059    12.544
   0.03106  0.97032  0.00914  1.09713  0.185880  0.014830 -0.000061    12.534
   0.04516  0.95680  0.01317  1.09943  0.180472  0.014387 -0.000063    12.544
   0.06006  0.94246  0.01720  1.10199  0.175181  0.013910 -0.000065    12.594
   0.07565  0.92739  0.02118  1.10480  0.169988  0.013403 -0.000067    12.683
   0.09186  0.91167  0.02516  1.10789  0.164947  0.012865 -0.000070    12.821
   0.10852  0.89549  0.02915  1.11121  0.159956  0.012305 -0.000073    12.999
   0.12544  0.87905  0.03313  1.11477  0.155056  0.011729 -0.000077    13.220
   0.14250  0.86245  0.03708  1.11853  0.150216  0.011140 -0.000081    13.484
   0.15964  0.84577  0.04099  1.12253  0.145567  0.010539 -0.000085    13.813
   0.17681  0.82904  0.04484  1.12676  0.141059  0.009927 -0.000090    14.210
   0.19398  0.81229  0.04864  1.13122  0.136700  0.009304 -0.000096    14.692
   0.21115  0.79553  0.05238  1.13595  0.132451  0.008672 -0.000102    15.273
   0.22833  0.77875  0.05606  1.14093  0.127978  0.008034 -0.000110    15.930
   0.24546  0.76200  0.05967  1.14684  0.131919  0.007288 -0.000120    18.101
   0.26249  0.74535  0.06319  1.15224  0.129566  0.006613 -0.000131    19.592
   0.27941  0.72877  0.06660  1.15816  0.131029  0.005886 -0.000146    22.259
   0.29629  0.71222  0.06990  1.16422  0.132797  0.005145 -0.000166    25.810
   0.31313  0.69568  0.07308  1.16959  0.123020  0.004519 -0.000188    27.220
   0.32994  0.67915  0.07616  1.17964  0.174347  0.003131 -0.000264    55.688
   0.34670  0.66266  0.07911  1.18295  0.143741  0.002684 -0.000309    53.564
   0.36339  0.64620  0.08193  1.18687  0.110978  0.002276 -0.000312    48.771
   0.38005  0.62976  0.08462  1.17906  0.066895  0.002939 -0.000320    22.764
   0.39672  0.61329  0.08718  1.20316  0.062070  0.001603 -0.000701    38.723
   0.41338  0.59681  0.08962  1.20304  0.058670  0.001613 -0.000697    36.371
   0.42997  0.58038  0.09191  1.20291  0.055262  0.001624 -0.000693    34.028
   0.44649  0.56400  0.09406  1.20275  0.051886  0.001635 -0.000689    31.731
   0.46301  0.54760  0.09605  1.20259  0.048550  0.001646 -0.000686    29.489
   0.47954  0.53117  0.09790  1.20242  0.045248  0.001657 -0.000682    27.299
   0.49603  0.51477  0.09961  1.20223  0.041987  0.001669 -0.000679    25.165
   0.51242  0.49845  0.10115  1.20205  0.038800  0.001679 -0.000677    23.109
   0.52875  0.48218  0.10252  1.20188  0.035711  0.001688 -0.000675    21.150
   0.54509  0.46588  0.10371  1.20174  0.032705  0.001697 -0.000674    19.274
   0.56144  0.44957  0.10475  1.20162  0.029774  0.001704 -0.000675    17.473
   0.57774  0.43329  0.10561  1.20156  0.026941  0.001709 -0.000676    15.761
   0.59394  0.41711  0.10630  1.20158  0.024218  0.001713 -0.000680    14.140
   0.61007  0.40098  0.10679  1.20174  0.021641  0.001713 -0.000686    12.634
   0.62617  0.38489  0.10708  1.20209  0.019183  0.001710 -0.000695    11.218
   0.64227  0.36879  0.10718  1.20272  0.016880  0.001702 -0.000709     9.915
   0.65836  0.35270  0.10708  1.20375  0.014706  0.001690 -0.000730     8.701
   0.67432  0.33674  0.10680  1.20533  0.012686  0.001672 -0.000762     7.588
   0.69010  0.32097  0.10629  1.20770  0.010874  0.001646 -0.000809     6.605
   0.70583  0.30526  0.10554  1.21118  0.009280  0.001613 -0.000872     5.755
   0.72167  0.28945  0.10454  1.21617  0.007888  0.001569 -0.000890     5.027
   0.73747  0.27369  0.10335  1.22293  0.006655  0.001516 -0.000693     4.390
   0.75302  0.25820  0.10195  1.23136  0.005617  0.001456 -0.000052     3.859
   0.76841  0.24291  0.10027  1.24158  0.004827  0.001387  0.000951     3.480
   0.78386  0.22758  0.09831  1.25307  0.004244  0.001313  0.002071     3.232
   0.79934  0.21226  0.09610  1.26523  0.003752  0.001237  0.003408     3.034
   0.81467  0.19713  0.09366  1.27686  0.003359  0.001163  0.004805     2.888
   0.82983  0.18221  0.09095  1.28681  0.003066  0.001095  0.006003     2.799
   0.84493  0.16741  0.08797  1.29502  0.002845  0.001034  0.006924     2.752
   0.85995  0.15275  0.08473  1.30293  0.002621  0.000971  0.008091     2.698
   0.87475  0.13836  0.08125  1.30938  0.002425  0.000912  0.009215     2.659
   0.88915  0.12444  0.07757  1.31512  0.002218  0.000852  0.010819     2.602
   0.90314  0.11101  0.07364  1.31739  0.002069  0.000800  0.011838     2.586
   0.91683  0.09797  0.06946  1.31834  0.001945  0.000749  0.012465     2.595
   0.92993  0.08560  0.06517  1.32076  0.001774  0.000693  0.014247     2.560
   0.94206  0.07425  0.06087  1.32089  0.001593  0.000638  0.017022     2.496
   0.95332  0.06387  0.05649  1.31389  0.001497  0.000597  0.017751     2.510
   0.96371  0.05444  0.05215  1.30788  0.001404  0.000554  0.018350     2.534
   0.97301  0.04611  0.04801  1.30440  0.001279  0.000507  0.020415     2.520
   0.98119  0.03891  0.04412  1.29913  0.001153  0.000463  0.023373     2.487
   0.98837  0.03273  0.04046  1.28952  0.001051  0.000425  0.025947     2.470
   0.99470  0.02743  0.03701  1.27701  0.000952  0.000390  0.029267     2.440
   1.00030  0.02288  0.03375  1.25963  0.000874  0.000360  0.031866     2.428
   1.00527  0.01898  0.03066  1.23931  0.000798  0.000331  0.034997     2.409
   1.00973  0.01561  0.02774  1.21437  0.000728  0.000305  0.038598     2.384
   1.01375  0.01272  0.02495  1.18326  0.000670  0.000283  0.041651     2.367
   1.01739  0.01024  0.02228  1.14664  0.000617  0.000263  0.044591     2.349
   1.02073  0.00811  0.01971  1.10441  0.000574  0.000245  0.046300     2.347
   1.02380  0.00630  0.01724  1.05630  0.000521  0.000226  0.050861     2.304
   1.02664  0.00476  0.01485  0.99554  0.000491  0.000214  0.051532     2.293
   1.02926  0.00350  0.01255  0.93046  0.000465  0.000202  0.050844     2.295
   1.03171  0.00246  0.01033  0.85823  0.000430  0.000192  0.053145     2.244
   1.03400  0.00163  0.00819  0.77753  0.000427  0.000187  0.046736     2.287
   1.03618  0.00098  0.00612  0.70122  0.000396  0.000175  0.046460     2.264
   1.03826  0.00048  0.00410  0.61391  0.000376  0.000166  0.043004     2.266
   1.04024  0.00015  0.00214  0.52037  0.000351  0.000155  0.039103     2.269
   1.04215  0.00001  0.00024  0.41394  0.000318  0.000140  0.034896     2.263
   1.04400  0.00012 -0.00161  0.28073  0.000293  0.000132  0.027172     2.225
   1.04587  0.00052 -0.00343  0.12995  0.000299  0.000134  0.013048     2.230
   1.04780  0.00123 -0.00524 -0.02241  0.000299  0.000134  0.000591     2.229
   1.04986  0.00223 -0.00703 -0.17112  0.000320  0.000143  0.013106     2.236
   1.05205  0.00354 -0.00879 -0.29356  0.000366  0.000162  0.019636     2.265
   1.05438  0.00514 -0.01048 -0.40797  0.000376  0.000169  0.028422     2.225
   1.05689  0.00705 -0.01212 -0.48810  0.000466  0.000198  0.024242     2.353
   1.05960  0.00924 -0.01371 -0.55275  0.000498  0.000220  0.028322     2.265
   1.06254  0.01171 -0.01530 -0.61044  0.000561  0.000242  0.026393     2.318
   1.06576  0.01450 -0.01689 -0.66037  0.000607  0.000263  0.026800     2.306
   1.06931  0.01766 -0.01852 -0.70116  0.000682  0.000291  0.024369     2.346
   1.07328  0.02125 -0.02021 -0.74162  0.000723  0.000313  0.025153     2.314
   1.07773  0.02534 -0.02197 -0.78022  0.000784  0.000336  0.024031     2.330
   1.08275  0.03002 -0.02380 -0.81614  0.000846  0.000362  0.023193     2.337
   1.08845  0.03539 -0.02569 -0.85157  0.000904  0.000387  0.022706     2.335
   1.09493  0.04158 -0.02763 -0.88282  0.000988  0.000419  0.021016     2.360
   1.10237  0.04875 -0.02960 -0.90949  0.001085  0.000456  0.019335     2.381
   1.11095  0.05710 -0.03158 -0.92945  0.001215  0.000502  0.016973     2.421
   1.12083  0.06678 -0.03358 -0.94733  0.001332  0.000550  0.015774     2.423
   1.13204  0.07781 -0.03556 -0.96331  0.001459  0.000600  0.014524     2.431
   1.14448  0.09010 -0.03747 -0.97713  0.001592  0.000653  0.013380     2.440
   1.15809  0.10359 -0.03926 -0.98780  0.001745  0.000709  0.012096     2.460
   1.17266  0.11806 -0.04096 -0.99785  0.001874  0.000763  0.011424     2.456
   1.18781  0.13314 -0.04249 -1.00839  0.001979  0.000811  0.011093     2.440
   1.20335  0.14862 -0.04385 -1.01750  0.002102  0.000860  0.010495     2.446
   1.21923  0.16445 -0.04503 -1.02541  0.002222  0.000907  0.009953     2.450
   1.23540  0.18059 -0.04604 -1.03123  0.002358  0.000957  0.009261     2.465
   1.25175  0.19691 -0.04691 -1.03786  0.002453  0.000999  0.009071     2.455
   1.26813  0.21328 -0.04763 -1.04452  0.002541  0.001038  0.008912     2.447
   1.28457  0.22971 -0.04819 -1.04916  0.002663  0.001082  0.008387     2.460
   1.30115  0.24629 -0.04860 -1.05361  0.002769  0.001123  0.008068     2.465
   1.31783  0.26296 -0.04890 -1.05803  0.002864  0.001161  0.007848     2.467
   1.33448  0.27961 -0.04908 -1.06265  0.002941  0.001196  0.007740     2.459
   1.35110  0.29624 -0.04912 -1.06642  0.003035  0.001233  0.007483     2.463
   1.36778  0.31291 -0.04903 -1.06931  0.003143  0.001271  0.007155     2.473
   1.38450  0.32963 -0.04882 -1.07274  0.003221  0.001305  0.007041     2.469
   1.40120  0.34633 -0.04849 -1.07546  0.003313  0.001340  0.006827     2.473
   1.41786  0.36298 -0.04803 -1.07792  0.003401  0.001375  0.006643     2.474
   1.43449  0.37961 -0.04745 -1.07972  0.003511  0.001411  0.006359     2.489
   1.45114  0.39623 -0.04673 -1.08147  0.003607  0.001445  0.006168     2.496
   1.46777  0.41285 -0.04588 -1.08211  0.003731  0.001484  0.005853     2.515
   1.48439  0.42943 -0.04489 -1.08266  0.003842  0.001521  0.005617     2.527
   1.50097  0.44597 -0.04378 -1.08181  0.003998  0.001564  0.005204     2.556
   1.51751  0.46247 -0.04253 -1.08109  0.004136  0.001605  0.004931     2.577
   1.53401  0.47892 -0.04112 -1.07895  0.004327  0.001653  0.004490     2.617
   1.55050  0.49532 -0.03957 -1.07612  0.004538  0.001704  0.004050     2.663
   1.56702  0.51176 -0.03785 -1.07196  0.004815  0.001763  0.003492     2.732
   1.58368  0.52831 -0.03597 -1.06696  0.005146  0.001826  0.002906     2.819
   1.60055  0.54506 -0.03395 -1.06149  0.005518  0.001891  0.002351     2.917
   1.61761  0.56199 -0.03181 -1.05611  0.005906  0.001956  0.001880     3.020
   1.63483  0.57906 -0.02959 -1.05061  0.006323  0.002021  0.001457     3.129
   1.65218  0.59626 -0.02732 -1.04545  0.006729  0.002084  0.001132     3.229
   1.66962  0.61355 -0.02500 -1.04039  0.007129  0.002146  0.000871     3.323
   1.68712  0.63090 -0.02268 -1.03569  0.007513  0.002204  0.000669     3.408
   1.70462  0.64824 -0.02037 -1.03113  0.007914  0.002263  0.000481     3.498
   1.72205  0.66552 -0.01809 -1.02690  0.008294  0.002318  0.000337     3.578
   1.73939  0.68272 -0.01585 -1.02292  0.008641  0.002371  0.000234     3.644
   1.75663  0.69982 -0.01367 -1.01915  0.008965  0.002423  0.000154     3.700
   1.77378  0.71684 -0.01156 -1.01561  0.009182  0.002473  0.000137     3.713
   1.79085  0.73379 -0.00953 -1.01226  0.009372  0.002521  0.000130     3.717
   1.80784  0.75067 -0.00760 -1.00905  0.009509  0.002569  0.000144     3.702
   1.82474  0.76746 -0.00576 -1.00608  0.009604  0.002614  0.000172     3.675
   1.84154  0.78418 -0.00404 -1.00329  0.009620  0.002657  0.000233     3.621
   1.85823  0.80079 -0.00245 -1.00064  0.009617  0.002698  0.000296     3.564
   1.87481  0.81731 -0.00100 -0.99829  0.009587  0.002737  0.000365     3.502
   1.89126  0.83371  0.00030 -0.99625  0.009458  0.002772  0.000485     3.412
   1.90759  0.85000  0.00143 -0.99464  0.009237  0.002801  0.000659     3.298
   1.92381  0.86619  0.00238 -0.99375  0.008919  0.002821  0.000905     3.162
   1.93987  0.88223  0.00314 -0.99386  0.008512  0.002828  0.001242     3.010
   1.95573  0.89808  0.00370 -0.99509  0.008054  0.002822  0.001656     2.854
   1.97131  0.91366  0.00404 -0.99811  0.007546  0.002796  0.002171     2.699
   1.98653  0.92887  0.00415 -1.00329  0.007000  0.002749  0.002798     2.547
   2.00124  0.94358  0.00401 -1.01131  0.006403  0.002675  0.003606     2.394
   2.01526  0.95760  0.00361 -1.02367  0.005748  0.002566  0.004698     2.240
   2.02837  0.97069  0.00296 -1.04144  0.005064  0.002421  0.006155     2.092
   2.04040  0.98268  0.00205 -1.06672  0.004356  0.002235  0.008178     1.949
   2.05125  0.99348  0.00090 -1.10885  0.003518  0.001967  0.011840     1.789
   2.05783  1.00000  0.00000 -1.09507  0.003964  0.002094  0.009593     1.893
   2.05783  1.00010 -0.00002  1.09494  0.196452  0.017958  0.000000    10.940
   2.06446  1.00660 -0.00132  1.09237  0.185004  0.018491  0.000000    10.005
   2.07221  1.01425 -0.00257  1.08990  0.182301  0.018985  0.000000     9.603
   2.08127  1.02321 -0.00387  1.08696  0.179572  0.019565  0.000000     9.178
   2.09186  1.03371 -0.00522  1.08348  0.176682  0.020251  0.000000     8.725
   2.10423  1.04600 -0.00664  1.07936  0.173790  0.021061  0.000000     8.252
   2.11869  1.06039 -0.00813  1.07445  0.170580  0.022023  0.000000     7.745
   2.13560  1.07722 -0.00967  1.06856  0.166696  0.023181  0.000000     7.191
   2.15535  1.09691 -0.01127  1.06148  0.162289  0.024570  0.000000     6.605
   2.17845  1.11995 -0.01290  1.05301  0.157909  0.026231  0.000000     6.020
   2.20544  1.14689 -0.01453  1.04276  0.152783  0.028256  0.000000     5.407
   2.23698  1.17840 -0.01613  1.03018  0.146734  0.030749  0.000000     4.772
   2.27386  1.21524 -0.01764  1.01453  0.140411  0.033883  0.000000     4.144
   2.31695  1.25831 -0.01901  0.99002  0.131857  0.039029  0.000000     3.378
   2.36732  1.30867 -0.02015  0.97145  0.114297  0.042962  0.000000     2.660
   2.42619  1.36754 -0.02096  0.95654  0.105063  0.046024  0.000000     2.283
   2.49501  1.43635 -0.02130  0.95037  0.091783  0.047251  0.000000     1.942
   2.57543  1.51677 -0.02101  0.95075  0.079678  0.047155  0.000000     1.690
   2.66944  1.61077 -0.01989  0.95529  0.069736  0.046318  0.000000     1.506
   2.77931  1.72062 -0.01771  0.96113  0.062175  0.045302  0.000000     1.372
   2.90773  1.84899 -0.01417  0.96792  0.056303  0.044213  0.000000     1.273
   3.05782  1.99899 -0.00894  0.98503  0.049798  0.041741  0.000000     1.193
