#    s        x        y     Ue/Vinf    Dstar     Theta      Cf       H
   0.00000  1.00000  0.00000  1.02873  0.105296  0.016188 -0.000070     6.505
   0.00668  0.99360  0.00192  1.03037  0.102123  0.015972 -0.000072     6.394
   0.01807  0.98272  0.00530  1.03358  0.099069  0.015561 -0.000074     6.367
   0.03106  0.97032  0.00914  1.03744  0.095788  0.015084 -0.000077     6.350
   0.04516  0.95680  0.01317  1.04189  0.092498  0.014554 -0.000080     6.355
   0.06006  0.94246  0.01720  1.04691  0.089316  0.013982 -0.000083     6.388
   0.07565  0.92739  0.02118  1.05249  0.086271  0.013370 -0.000087     6.453
   0.09186  0.91167  0.02516  1.05869  0.083319  0.012719 -0.000092     6.551
   0.10852  0.89549  0.02915  1.06549  0.080410  0.012037 -0.000097     6.680
   0.12544  0.87905  0.03313  1.07288  0.077551  0.011331 -0.000103     6.844
   0.14250  0.86245  0.03708  1.08087  0.074748  0.010604 -0.000110     7.049
   0.15964  0.84577  0.04099  1.08952  0.072002  0.009857 -0.000118     7.304
   0.17681  0.82904  0.04484  1.09889  0.069310  0.009091 -0.000127     7.624
   0.19398  0.81229  0.04864  1.10907  0.066670  0.008304 -0.000139     8.028
   0.21115  0.79553  0.05238  1.12020  0.064080  0.007495 -0.000153     8.550
   0.22833  0.77875  0.05606  1.13246  0.061519  0.006658 -0.000172     9.240
   0.24546  0.76200  0.05967  1.14609  0.058973  0.005788 -0.000197    10.189
   0.26249  0.74535  0.06319  1.16174  0.056431  0.004861 -0.000235    11.609
   0.27941  0.72877  0.06660  1.18002  0.053872  0.003860 -0.000296    13.956
   0.29629  0.71222  0.06990  1.20300  0.051195  0.002707 -0.000318    18.913
   0.31313  0.69568  0.07308  1.22145  0.048647  0.001878 -0.000611    25.905
   0.32994  0.67915  0.07616  1.22153  0.046574  0.001878 -0.000612    24.802
   0.34670  0.66266  0.07911  1.22158  0.044371  0.001879 -0.000612    23.608
   0.36339  0.64620  0.08193  1.22160  0.042094  0.001882 -0.000613    22.366
   0.38005  0.62976  0.08462  1.22161  0.039782  0.001885 -0.000613    21.104
   0.39672  0.61329  0.08718  1.22162  0.037447  0.001888 -0.000613    19.832
   0.41338  0.59681  0.08962  1.22163  0.035096  0.001891 -0.000614    18.556
   0.42997  0.58038  0.09191  1.22165  0.032750  0.001894 -0.000615    17.290
   0.44649  0.56400  0.09406  1.22169  0.030435  0.001896 -0.000617    16.049
   0.46301  0.54760  0.09605  1.22178  0.028163  0.001897 -0.000620    14.843
   0.47954  0.53117  0.09790  1.22192  0.025923  0.001897 -0.000624    13.664
   0.49603  0.51477  0.09961  1.22214  0.023727  0.001895 -0.000629    12.518
   0.51242  0.49845  0.10115  1.22248  0.021599  0.001892 -0.000636    11.418
   0.52875  0.48218  0.10252  1.22299  0.019568  0.001885 -0.000645    10.381
   0.54509  0.46588  0.10371  1.22372  0.017628  0.001875 -0.000658     9.401
   0.56144  0.44957  0.10475  1.22475  0.015767  0.001862 -0.000675     8.470
   0.57774  0.43329  0.10561  1.22618  0.014007  0.001844 -0.000700     7.597
   0.59394  0.41711  0.10630  1.22813  0.012373  0.001821 -0.000733     6.796
   0.61007  0.40098  0.10679  1.23078  0.010873  0.001792 -0.000779     6.067
   0.62617  0.38489  0.10708  1.23433  0.009519  0.001757 -0.000820     5.419
   0.64227  0.36879  0.10718  1.23902  0.008307  0.001714 -0.000801     4.847
   0.65836  0.35270  0.10708  1.24500  0.007235  0.001664 -0.000612     4.347
   0.67432  0.33674  0.10680  1.25213  0.006294  0.001609 -0.000137     3.912
   0.69010  0.32097  0.10629  1.26056  0.005509  0.001547  0.000632     3.560
   0.70583  0.30526  0.10554  1.27006  0.004905  0.001480  0.001523     3.314
   0.72167  0.28945  0.10454  1.28014  0.004416  0.001411  0.002490     3.130
   0.73747  0.27369  0.10335  1.29051  0.003982  0.001340  0.003636     2.971
   0.75302  0.25820  0.10195  1.30052  0.003601  0.001271  0.004956     2.833
   0.76841  0.24291  0.10027  1.30826  0.003342  0.001211  0.005923     2.759
   0.78386  0.22758  0.09831  1.31460  0.003134  0.001156  0.006734     2.712
   0.79934  0.21226  0.09610  1.32030  0.002935  0.001101  0.007641     2.666
   0.81467  0.19713  0.09366  1.32497  0.002747  0.001048  0.008621     2.622
   0.82983  0.18221  0.09095  1.32773  0.002599  0.000999  0.009354     2.601
   0.84493  0.16741  0.08797  1.32946  0.002467  0.000952  0.009982     2.591
   0.85995  0.15275  0.08473  1.33102  0.002325  0.000903  0.010809     2.575
   0.87475  0.13836  0.08125  1.33173  0.002184  0.000854  0.011728     2.558
   0.88915  0.12444  0.07757  1.33177  0.002029  0.000803  0.013069     2.526
   0.90314  0.11101  0.07364  1.32888  0.001907  0.000757  0.013997     2.518
   0.91683  0.09797  0.06946  1.32449  0.001812  0.000713  0.014326     2.541
   0.92993  0.08560  0.06517  1.32249  0.001658  0.000661  0.016216     2.507
   0.94206  0.07425  0.06087  1.31723  0.001500  0.000611  0.018902     2.453
   0.95332  0.06387  0.05649  1.30477  0.001416  0.000574  0.019510     2.469
   0.96371  0.05444  0.05215  1.29362  0.001335  0.000534  0.019876     2.499
   0.97301  0.04611  0.04801  1.28566  0.001215  0.000490  0.022100     2.481
   0.98119  0.03891  0.04412  1.27505  0.001106  0.000449  0.024570     2.463
   0.98837  0.03273  0.04046  1.26125  0.001004  0.000412  0.027421     2.439
   0.99470  0.02743  0.03701  1.24323  0.000916  0.000379  0.030249     2.419
   1.00030  0.02288  0.03375  1.22103  0.000838  0.000349  0.033082     2.400
   1.00527  0.01898  0.03066  1.19467  0.000772  0.000323  0.035483     2.390
   1.00973  0.01561  0.02774  1.16501  0.000709  0.000298  0.038201     2.376
   1.01375  0.01272  0.02495  1.12972  0.000644  0.000275  0.042383     2.337
   1.01739  0.01024  0.02228  1.08577  0.000605  0.000258  0.043056     2.345
   1.02073  0.00811  0.01971  1.03920  0.000554  0.000239  0.046231     2.317
   1.02380  0.00630  0.01724  0.98402  0.000518  0.000224  0.046750     2.317
   1.02664  0.00476  0.01485  0.92216  0.000475  0.000209  0.049698     2.276
   1.02926  0.00350  0.01255  0.84962  0.000455  0.000199  0.047285     2.288
   1.03171  0.00246  0.01033  0.77443  0.000424  0.000187  0.047248     2.263
   1.03400  0.00163  0.00819  0.68783  0.000404  0.000181  0.045066     2.237
   1.03618  0.00098  0.00612  0.59993  0.000400  0.000175  0.038149     2.281
   1.03826  0.00048  0.00410  0.51445  0.000364  0.000161  0.036320     2.269
   1.04024  0.00015  0.00214  0.40751  0.000339  0.000153  0.032532     2.213
   1.04215  0.00001  0.00024  0.29478  0.000333  0.000145  0.022419     2.288
   1.04400  0.00012 -0.00161  0.16482  0.000274  0.000123  0.015993     2.233
   1.04587  0.00052 -0.00343  0.00088  0.000303  0.000136  0.000079     2.230
   1.04780  0.00123 -0.00524 -0.14721  0.000303  0.000136  0.012948     2.230
   1.04986  0.00223 -0.00703 -0.28263  0.000336  0.000149  0.021905     2.256
   1.05205  0.00354 -0.00879 -0.41069  0.000345  0.000155  0.031769     2.227
   1.05438  0.00514 -0.01048 -0.50776  0.000412  0.000177  0.030119     2.323
   1.05689  0.00705 -0.01212 -0.58207  0.000455  0.000199  0.032587     2.280
   1.05960  0.00924 -0.01371 -0.64191  0.000521  0.000224  0.029920     2.330
   1.06254  0.01171 -0.01530 -0.69009  0.000576  0.000248  0.029235     2.325
   1.06576  0.01450 -0.01689 -0.73699  0.000618  0.000268  0.029543     2.310
   1.06931  0.01766 -0.01852 -0.77344  0.000698  0.000295  0.026074     2.364
   1.07328  0.02125 -0.02021 -0.80757  0.000749  0.000320  0.025875     2.343
   1.07773  0.02534 -0.02197 -0.84316  0.000798  0.000342  0.025638     2.332
   1.08275  0.03002 -0.02380 -0.87636  0.000863  0.000368  0.024293     2.347
   1.08845  0.03539 -0.02569 -0.90492  0.000943  0.000398  0.022438     2.370
   1.09493  0.04158 -0.02763 -0.93267  0.001013  0.000428  0.021610     2.366
   1.10237  0.04875 -0.02960 -0.95586  0.001116  0.000466  0.019499     2.397
   1.11095  0.05710 -0.03158 -0.97255  0.001249  0.000512  0.017024     2.437
   1.12083  0.06678 -0.03358 -0.98609  0.001380  0.000563  0.015398     2.451
   1.13204  0.07781 -0.03556 -0.99880  0.001504  0.000614  0.014322     2.451
   1.14448  0.09010 -0.03747 -1.00894  0.001650  0.000669  0.012956     2.467
   1.15809  0.10359 -0.03926 -1.01652  0.001807  0.000727  0.011707     2.485
   1.17266  0.11806 -0.04096 -1.02368  0.001943  0.000783  0.010994     2.482
   1.18781  0.13314 -0.04249 -1.03172  0.002052  0.000832  0.010684     2.465
   1.20335  0.14862 -0.04385 -1.03843  0.002181  0.000883  0.010060     2.470
   1.21923  0.16445 -0.04503 -1.04408  0.002309  0.000932  0.009489     2.477
   1.23540  0.18059 -0.04604 -1.04806  0.002452  0.000984  0.008822     2.493
   1.25175  0.19691 -0.04691 -1.05272  0.002553  0.001028  0.008596     2.483
   1.26813  0.21328 -0.04763 -1.05687  0.002660  0.001072  0.008288     2.482
   1.28457  0.22971 -0.04819 -1.06054  0.002769  0.001114  0.007972     2.485
   1.30115  0.24629 -0.04860 -1.06334  0.002888  0.001158  0.007588     2.494
   1.31783  0.26296 -0.04890 -1.06605  0.002994  0.001199  0.007321     2.496
   1.33448  0.27961 -0.04908 -1.06903  0.003081  0.001237  0.007176     2.491
   1.35110  0.29624 -0.04912 -1.07132  0.003185  0.001276  0.006921     2.495
   1.36778  0.31291 -0.04903 -1.07317  0.003292  0.001315  0.006657     2.503
   1.38450  0.32963 -0.04882 -1.07476  0.003396  0.001354  0.006423     2.508
   1.40120  0.34633 -0.04849 -1.07615  0.003497  0.001392  0.006215     2.513
   1.41786  0.36298 -0.04803 -1.07726  0.003599  0.001429  0.006007     2.519
   1.43449  0.37961 -0.04745 -1.07775  0.003715  0.001468  0.005744     2.531
   1.45114  0.39623 -0.04673 -1.07767  0.003843  0.001509  0.005453     2.548
   1.46777  0.41285 -0.04588 -1.07698  0.003984  0.001551  0.005135     2.569
   1.48439  0.42943 -0.04489 -1.07592  0.004127  0.001594  0.004839     2.589
   1.50097  0.44597 -0.04378 -1.07406  0.004296  0.001640  0.004480     2.620
   1.51751  0.46247 -0.04253 -1.07144  0.004493  0.001690  0.004079     2.659
   1.53401  0.47892 -0.04112 -1.06801  0.004725  0.001743  0.003634     2.710
   1.55050  0.49532 -0.03957 -1.06368  0.005009  0.001802  0.003125     2.780
   1.56702  0.51176 -0.03785 -1.05844  0.005365  0.001866  0.002551     2.875
   1.58368  0.52831 -0.03597 -1.05257  0.005801  0.001935  0.001952     2.998
   1.60055  0.54506 -0.03395 -1.04659  0.006293  0.002005  0.001406     3.138
   1.61761  0.56199 -0.03181 -1.04078  0.006834  0.002073  0.000932     3.296
   1.63483  0.57906 -0.02959 -1.03533  0.007408  0.002139  0.000546     3.464
   1.65218  0.59626 -0.02732 -1.03031  0.008006  0.002200  0.000244     3.639
   1.66962  0.61355 -0.02500 -1.02572  0.008618  0.002258  0.000017     3.816
   1.68712  0.63090 -0.02268 -1.02152  0.009222  0.002313 -0.000143     3.987
   1.70462  0.64824 -0.02037 -1.01766  0.009812  0.002365 -0.000251     4.149
   1.72205  0.66552 -0.01809 -1.01407  0.010380  0.002415 -0.000323     4.298
   1.73939  0.68272 -0.01585 -1.01073  0.010920  0.002463 -0.000367     4.433
   1.75663  0.69982 -0.01367 -1.00763  0.011416  0.002510 -0.000393     4.548
   1.77378  0.71684 -0.01156 -1.00472  0.011860  0.002555 -0.000405     4.642
   1.79085  0.73379 -0.00953 -1.00197  0.012242  0.002598 -0.000410     4.711
   1.80784  0.75067 -0.00760 -0.99936  0.012556  0.002641 -0.000408     4.754
   1.82474  0.76746 -0.00576 -0.99684  0.012798  0.002683 -0.000403     4.770
   1.84154  0.78418 -0.00404 -0.99441  0.012957  0.002724 -0.000394     4.756
   1.85823  0.80079 -0.00245 -0.99203  0.013026  0.002765 -0.000381     4.711
   1.87481  0.81731 -0.00100 -0.98970  0.012995  0.002806 -0.000362     4.632
   1.89126  0.83371  0.00030 -0.98740  0.012854  0.002846 -0.000332     4.516
   1.90759  0.85000  0.00143 -0.98514  0.012598  0.002886 -0.000285     4.365
   1.92381  0.86619  0.00238 -0.98289  0.012222  0.002925 -0.000210     4.178
   1.93987  0.88223  0.00314 -0.98072  0.011735  0.002964 -0.000090     3.960
   1.95573  0.89808  0.00370 -0.97881  0.011134  0.002997  0.000098     3.714
   1.97131  0.91366  0.00404 -0.97757  0.010427  0.003021  0.000380     3.452
   1.98653  0.92887  0.00415 -0.97764  0.009616  0.003024  0.000795     3.180
   2.00124  0.94358  0.00401 -0.97995  0.008721  0.002997  0.001380     2.910
   2.01526  0.95760  0.00361 -0.98562  0.007770  0.002928  0.002183     2.654
   2.02837  0.97069  0.00296 -0.99612  0.006778  0.002808  0.003291     2.414
   2.04040  0.98268  0.00205 -1.01333  0.005770  0.002632  0.004843     2.192
   2.05125  0.99348  0.00090 -1.04066  0.004744  0.002390  0.007171     1.985
   2.05783  1.00000  0.00000 -1.02873  0.005316  0.002524  0.005744     2.106
   2.05783  1.00010 -0.00002  1.02873  0.110613  0.018712  0.000000     5.911
   2.06446  1.00660 -0.00133  1.02520  0.105732  0.019214  0.000000     5.503
   2.07221  1.01424 -0.00260  1.02130  0.103347  0.019761  0.000000     5.230
   2.08127  1.02320 -0.00393  1.01663  0.100939  0.020413  0.000000     4.945
   2.09186  1.03370 -0.00533  1.01097  0.098373  0.021201  0.000000     4.640
   2.10423  1.04598 -0.00682  1.00403  0.095514  0.022169  0.000000     4.308
   2.11869  1.06036 -0.00840  0.99532  0.092275  0.023384  0.000000     3.946
   2.13560  1.07718 -0.01007  0.98414  0.088603  0.024952  0.000000     3.551
   2.15535  1.09685 -0.01183  0.97183  0.084345  0.026692  0.000000     3.160
   2.17845  1.11987 -0.01367  0.96114  0.079359  0.028205  0.000000     2.814
   2.20544  1.14680 -0.01557  0.95188  0.073761  0.029506  0.000000     2.500
   2.23698  1.17828 -0.01753  0.94486  0.067692  0.030473  0.000000     2.221
   2.27386  1.21510 -0.01949  0.94085  0.061391  0.031009  0.000000     1.980
   2.31695  1.25815 -0.02144  0.94027  0.055180  0.031084  0.000000     1.775
   2.36732  1.30849 -0.02330  0.94299  0.049395  0.030754  0.000000     1.606
   2.42619  1.36734 -0.02502  0.94831  0.044306  0.030148  0.000000     1.470
   2.49501  1.43613 -0.02650  0.95510  0.040049  0.029422  0.000000     1.361
   2.57543  1.51655 -0.02764  0.96227  0.036620  0.028702  0.000000     1.276
   2.66944  1.61055 -0.02830  0.96903  0.033926  0.028058  0.000000     1.209
   2.77931  1.72042 -0.02831  0.97498  0.031840  0.027517  0.000000     1.157
   2.90773  1.84884 -0.02749  0.98003  0.030244  0.027075  0.000000     1.117
   3.05782  1.99892 -0.02558  0.98734  0.028730  0.026458  0.000000     1.086
