#    s        x        y     Ue/Vinf    Dstar     Theta      Cf       H
   0.00000  1.00000  0.00000  1.01214  0.090877  0.013408 -0.000082     6.778
   0.00668  0.99360  0.00192  1.01422  0.087523  0.013170 -0.000084     6.645
   0.01807  0.98272  0.00530  1.01835  0.084635  0.012716 -0.000088     6.656
   0.03106  0.97032  0.00914  1.02337  0.081605  0.012185 -0.000092     6.697
   0.04516  0.95680  0.01317  1.02923  0.078634  0.011593 -0.000097     6.783
   0.06006  0.94246  0.01720  1.03588  0.075814  0.010951 -0.000102     6.923
   0.07565  0.92739  0.02118  1.04339  0.073164  0.010260 -0.000109     7.131
   0.09186  0.91167  0.02516  1.05183  0.070630  0.009523 -0.000117     7.417
   0.10852  0.89549  0.02915  1.06122  0.068153  0.008744 -0.000127     7.794
   0.12544  0.87905  0.03313  1.07161  0.065726  0.007931 -0.000139     8.287
   0.14250  0.86245  0.03708  1.08308  0.063341  0.007084 -0.000155     8.941
   0.15964  0.84577  0.04099  1.09586  0.060987  0.006200 -0.000177     9.837
   0.17681  0.82904  0.04484  1.11050  0.058627  0.005253 -0.000208    11.160
   0.19398  0.81229  0.04864  1.12756  0.056227  0.004231 -0.000259    13.290
   0.21115  0.79553  0.05238  1.14863  0.053696  0.003067 -0.000290    17.505
   0.22833  0.77875  0.05606  1.17008  0.051100  0.001998 -0.000550    25.571
   0.24546  0.76200  0.05967  1.17018  0.049111  0.001997 -0.000551    24.588
   0.26249  0.74535  0.06319  1.17023  0.046963  0.001998 -0.000552    23.501
   0.27941  0.72877  0.06660  1.17026  0.044729  0.002001 -0.000552    22.358
   0.29629  0.71222  0.06990  1.17027  0.042443  0.002003 -0.000552    21.186
   0.31313  0.69568  0.07308  1.17028  0.040117  0.002007 -0.000553    19.993
   0.32994  0.67915  0.07616  1.17028  0.037782  0.002010 -0.000553    18.799
   0.34670  0.66266  0.07911  1.17029  0.035438  0.002013 -0.000554    17.605
   0.36339  0.64620  0.08193  1.17031  0.033114  0.002016 -0.000556    16.429
   0.38005  0.62976  0.08462  1.17037  0.030822  0.002017 -0.000557    15.279
   0.39672  0.61329  0.08718  1.17046  0.028571  0.002018 -0.000560    14.159
   0.41338  0.59681  0.08962  1.17062  0.026356  0.002017 -0.000564    13.066
   0.42997  0.58038  0.09191  1.17085  0.024190  0.002015 -0.000569    12.006
   0.44649  0.56400  0.09406  1.17120  0.022103  0.002010 -0.000575    10.996
   0.46301  0.54760  0.09605  1.17171  0.020098  0.002003 -0.000584    10.036
   0.47954  0.53117  0.09790  1.17243  0.018175  0.001992 -0.000596     9.124
   0.49603  0.51477  0.09961  1.17341  0.016324  0.001978 -0.000612     8.253
   0.51242  0.49845  0.10115  1.17475  0.014587  0.001959 -0.000634     7.445
   0.52875  0.48218  0.10252  1.17656  0.012986  0.001936 -0.000664     6.707
   0.54509  0.46588  0.10371  1.17899  0.011507  0.001907 -0.000703     6.034
   0.56144  0.44957  0.10475  1.18218  0.010145  0.001872 -0.000737     5.420
   0.57774  0.43329  0.10561  1.18632  0.008911  0.001830 -0.000723     4.870
   0.59394  0.41711  0.10630  1.19153  0.007826  0.001781 -0.000576     4.394
   0.61007  0.40098  0.10679  1.19772  0.006893  0.001727 -0.000228     3.991
   0.62617  0.38489  0.10708  1.20496  0.006097  0.001668  0.000338     3.656
   0.64227  0.36879  0.10718  1.21329  0.005433  0.001602  0.001076     3.392
   0.65836  0.35270  0.10708  1.22233  0.004887  0.001532  0.001920     3.190
   0.67432  0.33674  0.10680  1.23171  0.004409  0.001461  0.002912     3.018
   0.69010  0.32097  0.10629  1.24068  0.004014  0.001392  0.003950     2.883
   0.70583  0.30526  0.10554  1.24817  0.003729  0.001330  0.004775     2.803
   0.72167  0.28945  0.10454  1.25455  0.003502  0.001273  0.005472     2.751
   0.73747  0.27369  0.10335  1.26103  0.003249  0.001213  0.006485     2.679
   0.75302  0.25820  0.10195  1.26615  0.003023  0.001156  0.007560     2.614
   0.76841  0.24291  0.10027  1.26885  0.002852  0.001107  0.008384     2.576
   0.78386  0.22758  0.09831  1.26960  0.002721  0.001063  0.008944     2.561
   0.79934  0.21226  0.09610  1.26989  0.002583  0.001017  0.009649     2.540
   0.81467  0.19713  0.09366  1.26935  0.002438  0.000971  0.010533     2.511
   0.82983  0.18221  0.09095  1.26665  0.002322  0.000929  0.011170     2.500
   0.84493  0.16741  0.08797  1.26277  0.002215  0.000887  0.011729     2.496
   0.85995  0.15275  0.08473  1.25818  0.002106  0.000845  0.012329     2.493
   0.87475  0.13836  0.08125  1.25305  0.001988  0.000800  0.013118     2.485
   0.88915  0.12444  0.07757  1.24720  0.001845  0.000752  0.014568     2.452
   0.90314  0.11101  0.07364  1.23701  0.001745  0.000711  0.015272     2.452
   0.91683  0.09797  0.06946  1.22579  0.001646  0.000669  0.015920     2.460
   0.92993  0.08560  0.06517  1.21448  0.001531  0.000623  0.017028     2.456
   0.94206  0.07425  0.06087  1.20168  0.001372  0.000574  0.020112     2.389
   0.95332  0.06387  0.05649  1.17872  0.001300  0.000541  0.020510     2.404
   0.96371  0.05444  0.05215  1.15729  0.001231  0.000505  0.020574     2.437
   0.97301  0.04611  0.04801  1.13908  0.001114  0.000462  0.022995     2.410
   0.98119  0.03891  0.04412  1.11611  0.001024  0.000425  0.024591     2.407
   0.98837  0.03273  0.04046  1.09073  0.000925  0.000390  0.027531     2.372
   0.99470  0.02743  0.03701  1.05923  0.000859  0.000361  0.028559     2.379
   1.00030  0.02288  0.03375  1.02648  0.000780  0.000332  0.031370     2.351
   1.00527  0.01898  0.03066  0.98647  0.000716  0.000307  0.033372     2.333
   1.00973  0.01561  0.02774  0.94152  0.000666  0.000286  0.034361     2.330
   1.01375  0.01272  0.02495  0.89264  0.000612  0.000265  0.036174     2.309
   1.01739  0.01024  0.02228  0.83823  0.000573  0.000247  0.035816     2.323
   1.02073  0.00811  0.01971  0.77762  0.000515  0.000227  0.038917     2.266
   1.02380  0.00630  0.01724  0.70486  0.000496  0.000216  0.035808     2.293
   1.02664  0.00476  0.01485  0.62897  0.000453  0.000202  0.036537     2.243
   1.02926  0.00350  0.01255  0.54803  0.000441  0.000191  0.030605     2.315
   1.03171  0.00246  0.01033  0.45699  0.000385  0.000177  0.033031     2.180
   1.03400  0.00163  0.00819  0.35450  0.000416  0.000181  0.021313     2.299
   1.03618  0.00098  0.00612  0.26196  0.000361  0.000163  0.019709     2.209
   1.03826  0.00048  0.00410  0.15186  0.000367  0.000163  0.010781     2.254
   1.04024  0.00015  0.00214  0.03303  0.000301  0.000135  0.002921     2.230
   1.04215  0.00001  0.00024 -0.11444  0.000301  0.000135  0.010134     2.230
   1.04400  0.00012 -0.00161 -0.25833  0.000301  0.000135  0.022921     2.229
   1.04587  0.00052 -0.00343 -0.41157  0.000290  0.000131  0.038216     2.218
   1.04780  0.00123 -0.00524 -0.55457  0.000312  0.000138  0.045802     2.267
   1.04986  0.00223 -0.00703 -0.67218  0.000343  0.000151  0.050159     2.274
   1.05205  0.00354 -0.00879 -0.77396  0.000374  0.000164  0.052645     2.281
   1.05438  0.00514 -0.01048 -0.84561  0.000436  0.000186  0.046383     2.348
   1.05689  0.00705 -0.01212 -0.89525  0.000496  0.000210  0.042486     2.363
   1.05960  0.00924 -0.01371 -0.92798  0.000576  0.000239  0.036210     2.410
   1.06254  0.01171 -0.01530 -0.95765  0.000627  0.000263  0.035289     2.382
   1.06576  0.01450 -0.01689 -0.98240  0.000696  0.000289  0.031861     2.405
   1.06931  0.01766 -0.01852 -1.00217  0.000769  0.000318  0.028919     2.422
   1.07328  0.02125 -0.02021 -1.02259  0.000825  0.000343  0.027991     2.405
   1.07773  0.02534 -0.02197 -1.04206  0.000892  0.000370  0.026292     2.409
   1.08275  0.03002 -0.02380 -1.06138  0.000956  0.000398  0.025058     2.406
   1.08845  0.03539 -0.02569 -1.07846  0.001037  0.000428  0.023131     2.421
   1.09493  0.04158 -0.02763 -1.09479  0.001116  0.000460  0.021754     2.424
   1.10237  0.04875 -0.02960 -1.10595  0.001236  0.000501  0.019024     2.465
   1.11095  0.05710 -0.03158 -1.11280  0.001372  0.000549  0.016604     2.500
   1.12083  0.06678 -0.03358 -1.11561  0.001532  0.000604  0.014312     2.538
   1.13204  0.07781 -0.03556 -1.11746  0.001681  0.000660  0.012937     2.547
   1.14448  0.09010 -0.03747 -1.11858  0.001835  0.000718  0.011769     2.554
   1.15809  0.10359 -0.03926 -1.11802  0.002009  0.000781  0.010501     2.574
   1.17266  0.11806 -0.04096 -1.11792  0.002160  0.000840  0.009808     2.571
   1.18781  0.13314 -0.04249 -1.11918  0.002282  0.000894  0.009485     2.553
   1.20335  0.14862 -0.04385 -1.11990  0.002423  0.000948  0.008913     2.555
   1.21923  0.16445 -0.04503 -1.12042  0.002560  0.001001  0.008417     2.558
   1.23540  0.18059 -0.04604 -1.11965  0.002722  0.001056  0.007745     2.577
   1.25175  0.19691 -0.04691 -1.12021  0.002829  0.001104  0.007567     2.563
   1.26813  0.21328 -0.04763 -1.12041  0.002951  0.001151  0.007254     2.563
   1.28457  0.22971 -0.04819 -1.12028  0.003078  0.001198  0.006915     2.569
   1.30115  0.24629 -0.04860 -1.12000  0.003202  0.001244  0.006609     2.573
   1.31783  0.26296 -0.04890 -1.11958  0.003325  0.001289  0.006328     2.578
   1.33448  0.27961 -0.04908 -1.11961  0.003425  0.001331  0.006179     2.573
   1.35110  0.29624 -0.04912 -1.11874  0.003558  0.001376  0.005854     2.587
   1.36778  0.31291 -0.04903 -1.11803  0.003674  0.001418  0.005634     2.591
   1.38450  0.32963 -0.04882 -1.11680  0.003808  0.001462  0.005348     2.605
   1.40120  0.34633 -0.04849 -1.11560  0.003931  0.001504  0.005126     2.613
   1.41786  0.36298 -0.04803 -1.11398  0.004068  0.001548  0.004863     2.628
   1.43449  0.37961 -0.04745 -1.11175  0.004227  0.001594  0.004541     2.652
   1.45114  0.39623 -0.04673 -1.10909  0.004399  0.001642  0.004209     2.679
   1.46777  0.41285 -0.04588 -1.10565  0.004608  0.001693  0.003806     2.721
   1.48439  0.42943 -0.04489 -1.10193  0.004824  0.001746  0.003434     2.763
   1.50097  0.44597 -0.04378 -1.09733  0.005099  0.001803  0.002969     2.828
   1.51751  0.46247 -0.04253 -1.09224  0.005416  0.001863  0.002490     2.907
   1.53401  0.47892 -0.04112 -1.08657  0.005811  0.001928  0.001958     3.015
   1.55050  0.49532 -0.03957 -1.08057  0.006299  0.001995  0.001399     3.158
   1.56702  0.51176 -0.03785 -1.07452  0.006912  0.002062  0.000833     3.352
   1.58368  0.52831 -0.03597 -1.06891  0.007645  0.002126  0.000331     3.595
   1.60055  0.54506 -0.03395 -1.06398  0.008487  0.002184 -0.000059     3.885
   1.61761  0.56199 -0.03181 -1.05970  0.009412  0.002237 -0.000314     4.208
   1.63483  0.57906 -0.02959 -1.05589  0.010401  0.002286 -0.000452     4.550
   1.65218  0.59626 -0.02732 -1.05258  0.011428  0.002331 -0.000507     4.903
   1.66962  0.61355 -0.02500 -1.04973  0.012482  0.002372 -0.000515     5.263
   1.68712  0.63090 -0.02268 -1.04728  0.013531  0.002409 -0.000506     5.616
   1.70462  0.64824 -0.02037 -1.04515  0.014565  0.002444 -0.000488     5.960
   1.72205  0.66552 -0.01809 -1.04328  0.015565  0.002476 -0.000471     6.287
   1.73939  0.68272 -0.01585 -1.04161  0.016527  0.002506 -0.000457     6.596
   1.75663  0.69982 -0.01367 -1.04009  0.017427  0.002534 -0.000444     6.876
   1.77378  0.71684 -0.01156 -1.03868  0.018253  0.002562 -0.000434     7.124
   1.79085  0.73379 -0.00953 -1.03734  0.018994  0.002589 -0.000425     7.336
   1.80784  0.75067 -0.00760 -1.03607  0.019643  0.002616 -0.000418     7.509
   1.82474  0.76746 -0.00576 -1.03482  0.020191  0.002643 -0.000411     7.640
   1.84154  0.78418 -0.00404 -1.03359  0.020625  0.002670 -0.000406     7.724
   1.85823  0.80079 -0.00245 -1.03236  0.020937  0.002698 -0.000400     7.759
   1.87481  0.81731 -0.00100 -1.03112  0.021112  0.002727 -0.000396     7.741
   1.89126  0.83371  0.00030 -1.02984  0.021136  0.002757 -0.000392     7.666
   1.90759  0.85000  0.00143 -1.02851  0.021004  0.002788 -0.000389     7.532
   1.92381  0.86619  0.00238 -1.02712  0.020701  0.002821 -0.000387     7.337
   1.93987  0.88223  0.00314 -1.02565  0.020230  0.002856 -0.000385     7.084
   1.95573  0.89808  0.00370 -1.02411  0.019581  0.002891 -0.000385     6.772
   1.97131  0.91366  0.00404 -1.02247  0.018751  0.002929 -0.000388     6.403
   1.98653  0.92887  0.00415 -1.02074  0.017732  0.002966 -0.000392     5.977
   2.00124  0.94358  0.00401 -1.01895  0.016539  0.003004 -0.000396     5.505
   2.01526  0.95760  0.00361 -1.01714  0.015202  0.003041 -0.000382     5.000
   2.02837  0.97069  0.00296 -1.01544  0.013763  0.003073 -0.000307     4.479
   2.04040  0.98268  0.00205 -1.01400  0.012293  0.003099 -0.000093     3.967
   2.05125  0.99348  0.00090 -1.01350  0.010904  0.003108  0.000314     3.508
   2.05783  1.00000  0.00000 -1.01214  0.011566  0.003132  0.000117     3.692
   2.05783  1.00010 -0.00002  1.01214  0.102442  0.016540  0.000000     6.194
   2.06446  1.00660 -0.00133  1.00792  0.096598  0.017096  0.000000     5.650
   2.07221  1.01424 -0.00263  1.00322  0.093663  0.017704  0.000000     5.291
   2.08127  1.02319 -0.00399  0.99753  0.090704  0.018433  0.000000     4.921
   2.09186  1.03368 -0.00545  0.99056  0.087579  0.019323  0.000000     4.532
   2.10423  1.04595 -0.00701  0.98184  0.084146  0.020434  0.000000     4.118
   2.11869  1.06032 -0.00869  0.97061  0.080338  0.021868  0.000000     3.674
   2.13560  1.07712 -0.01050  0.95758  0.076036  0.023541  0.000000     3.230
   2.15535  1.09679 -0.01243  0.94644  0.071052  0.024970  0.000000     2.845
   2.17845  1.11979 -0.01451  0.93701  0.065510  0.026166  0.000000     2.504
   2.20544  1.14668 -0.01671  0.93027  0.059562  0.027002  0.000000     2.206
   2.23698  1.17814 -0.01905  0.92704  0.053460  0.027387  0.000000     1.952
   2.27386  1.21493 -0.02152  0.92779  0.047533  0.027302  0.000000     1.741
   2.31695  1.25795 -0.02409  0.93226  0.042115  0.026826  0.000000     1.570
   2.36732  1.30825 -0.02675  0.93950  0.037451  0.026110  0.000000     1.434
   2.42619  1.36706 -0.02946  0.94813  0.033636  0.025315  0.000000     1.329
   2.49501  1.43582 -0.03220  0.95688  0.030630  0.024563  0.000000     1.247
   2.57543  1.51620 -0.03490  0.96491  0.028315  0.023911  0.000000     1.184
   2.66944  1.61017 -0.03750  0.97187  0.026556  0.023374  0.000000     1.136
   2.77931  1.72001 -0.03993  0.97771  0.025233  0.022942  0.000000     1.100
   2.90773  1.84841 -0.04207  0.98248  0.024246  0.022600  0.000000     1.073
   3.05782  1.99850 -0.04382  0.98822  0.023372  0.022201  0.000000     1.053
