#    s        x        y     Ue/Vinf    Dstar     Theta      Cf       H
   0.00000  1.00000  0.00000  1.01621  0.097156  0.014414 -0.000077     6.740
   0.00668  0.99360  0.00192  1.01808  0.093866  0.014187 -0.000079     6.617
   0.01807  0.98272  0.00530  1.02176  0.090884  0.013752 -0.000082     6.609
   0.03106  0.97032  0.00914  1.02622  0.087723  0.013247 -0.000085     6.622
   0.04516  0.95680  0.01317  1.03139  0.084591  0.012684 -0.000089     6.669
   0.06006  0.94246  0.01720  1.03724  0.081592  0.012075 -0.000094     6.757
   0.07565  0.92739  0.02118  1.04381  0.078749  0.011421 -0.000099     6.895
   0.09186  0.91167  0.02516  1.05114  0.076014  0.010726 -0.000105     7.087
   0.10852  0.89549  0.02915  1.05924  0.073333  0.009994 -0.000113     7.338
   0.12544  0.87905  0.03313  1.06813  0.070706  0.009233 -0.000121     7.658
   0.14250  0.86245  0.03708  1.07784  0.068131  0.008445 -0.000132     8.068
   0.15964  0.84577  0.04099  1.08848  0.065605  0.007631 -0.000146     8.597
   0.17681  0.82904  0.04484  1.10019  0.063118  0.006789 -0.000164     9.297
   0.19398  0.81229  0.04864  1.11322  0.060655  0.005910 -0.000188    10.262
   0.21115  0.79553  0.05238  1.12823  0.058184  0.004969 -0.000223    11.710
   0.22833  0.77875  0.05606  1.14584  0.055653  0.003946 -0.000280    14.104
   0.24546  0.76200  0.05967  1.16792  0.052958  0.002767 -0.000300    19.139
   0.26249  0.74535  0.06319  1.18501  0.050399  0.001949 -0.000571    25.861
   0.27941  0.72877  0.06660  1.18508  0.048315  0.001949 -0.000572    24.790
   0.29629  0.71222  0.06990  1.18512  0.046103  0.001951 -0.000572    23.634
   0.31313  0.69568  0.07308  1.18514  0.043813  0.001953 -0.000573    22.429
   0.32994  0.67915  0.07616  1.18514  0.041476  0.001957 -0.000573    21.197
   0.34670  0.66266  0.07911  1.18514  0.039109  0.001960 -0.000573    19.951
   0.36339  0.64620  0.08193  1.18514  0.036738  0.001964 -0.000574    18.708
   0.38005  0.62976  0.08462  1.18514  0.034381  0.001967 -0.000575    17.480
   0.39672  0.61329  0.08718  1.18518  0.032050  0.001969 -0.000576    16.275
   0.41338  0.59681  0.08962  1.18524  0.029737  0.001971 -0.000578    15.087
   0.42997  0.58038  0.09191  1.18534  0.027457  0.001972 -0.000581    13.927
   0.44649  0.56400  0.09406  1.18552  0.025245  0.001970 -0.000585    12.812
   0.46301  0.54760  0.09605  1.18580  0.023103  0.001967 -0.000591    11.743
   0.47954  0.53117  0.09790  1.18621  0.021026  0.001962 -0.000599    10.718
   0.49603  0.51477  0.09961  1.18680  0.019009  0.001953 -0.000609     9.731
   0.51242  0.49845  0.10115  1.18762  0.017095  0.001942 -0.000623     8.804
   0.52875  0.48218  0.10252  1.18878  0.015305  0.001926 -0.000642     7.947
   0.54509  0.46588  0.10371  1.19037  0.013622  0.001905 -0.000668     7.150
   0.56144  0.44957  0.10475  1.19252  0.012048  0.001879 -0.000704     6.411
   0.57774  0.43329  0.10561  1.19538  0.010606  0.001847 -0.000749     5.742
   0.59394  0.41711  0.10630  1.19915  0.009293  0.001809 -0.000767     5.138
   0.61007  0.40098  0.10679  1.20402  0.008142  0.001763 -0.000695     4.617
   0.62617  0.38489  0.10708  1.21001  0.007143  0.001711 -0.000438     4.174
   0.64227  0.36879  0.10718  1.21706  0.006282  0.001654  0.000059     3.798
   0.65836  0.35270  0.10708  1.22535  0.005553  0.001590  0.000784     3.493
   0.67432  0.33674  0.10680  1.23468  0.004931  0.001520  0.001718     3.244
   0.69010  0.32097  0.10629  1.24437  0.004426  0.001449  0.002758     3.055
   0.70583  0.30526  0.10554  1.25342  0.004047  0.001381  0.003701     2.929
   0.72167  0.28945  0.10454  1.26148  0.003759  0.001319  0.004491     2.851
   0.73747  0.27369  0.10335  1.26970  0.003452  0.001254  0.005601     2.754
   0.75302  0.25820  0.10195  1.27668  0.003182  0.001193  0.006790     2.669
   0.76841  0.24291  0.10027  1.28091  0.002996  0.001141  0.007601     2.627
   0.78386  0.22758  0.09831  1.28359  0.002845  0.001093  0.008243     2.603
   0.79934  0.21226  0.09610  1.28573  0.002690  0.001044  0.009006     2.576
   0.81467  0.19713  0.09366  1.28697  0.002535  0.000996  0.009906     2.545
   0.82983  0.18221  0.09095  1.28637  0.002402  0.000951  0.010670     2.526
   0.84493  0.16741  0.08797  1.28397  0.002298  0.000909  0.011104     2.528
   0.85995  0.15275  0.08473  1.28181  0.002174  0.000863  0.011850     2.518
   0.87475  0.13836  0.08125  1.27879  0.002045  0.000817  0.012766     2.503
   0.88915  0.12444  0.07757  1.27459  0.001905  0.000769  0.014059     2.476
   0.90314  0.11101  0.07364  1.26719  0.001790  0.000726  0.015018     2.467
   0.91683  0.09797  0.06946  1.25771  0.001703  0.000684  0.015305     2.489
   0.92993  0.08560  0.06517  1.25013  0.001567  0.000635  0.016925     2.467
   0.94206  0.07425  0.06087  1.23943  0.001415  0.000587  0.019669     2.411
   0.95332  0.06387  0.05649  1.22047  0.001334  0.000551  0.020358     2.421
   0.96371  0.05444  0.05215  1.20210  0.001262  0.000515  0.020484     2.453
   0.97301  0.04611  0.04801  1.18723  0.001150  0.000472  0.022566     2.438
   0.98119  0.03891  0.04412  1.16922  0.001046  0.000432  0.024888     2.419
   0.98837  0.03273  0.04046  1.14731  0.000952  0.000397  0.027437     2.398
   0.99470  0.02743  0.03701  1.12071  0.000871  0.000366  0.029786     2.381
   1.00030  0.02288  0.03375  1.08990  0.000801  0.000338  0.031898     2.368
   1.00527  0.01898  0.03066  1.05506  0.000735  0.000313  0.034191     2.351
   1.00973  0.01561  0.02774  1.01565  0.000681  0.000290  0.035580     2.349
   1.01375  0.01272  0.02495  0.97234  0.000622  0.000268  0.038214     2.324
   1.01739  0.01024  0.02228  0.92078  0.000576  0.000249  0.039657     2.309
   1.02073  0.00811  0.01971  0.86352  0.000537  0.000233  0.039860     2.309
   1.02380  0.00630  0.01724  0.79910  0.000492  0.000216  0.041752     2.271
   1.02664  0.00476  0.01485  0.72382  0.000468  0.000206  0.039639     2.273
   1.02926  0.00350  0.01255  0.64778  0.000443  0.000194  0.037108     2.285
   1.03171  0.00246  0.01033  0.56270  0.000406  0.000182  0.036962     2.230
   1.03400  0.00163  0.00819  0.46911  0.000402  0.000177  0.029866     2.275
   1.03618  0.00098  0.00612  0.37365  0.000368  0.000166  0.027229     2.223
   1.03826  0.00048  0.00410  0.26763  0.000362  0.000160  0.019155     2.261
   1.04024  0.00015  0.00214  0.15501  0.000322  0.000144  0.012783     2.233
   1.04215  0.00001  0.00024  0.02198  0.000308  0.000138  0.001901     2.230
   1.04400  0.00012 -0.00161 -0.11519  0.000308  0.000138  0.009971     2.230
   1.04587  0.00052 -0.00343 -0.27593  0.000276  0.000125  0.027170     2.209
   1.04780  0.00123 -0.00524 -0.41657  0.000323  0.000140  0.032183     2.302
   1.04986  0.00223 -0.00703 -0.54093  0.000332  0.000150  0.043900     2.218
   1.05205  0.00354 -0.00879 -0.65377  0.000369  0.000161  0.044596     2.292
   1.05438  0.00514 -0.01048 -0.73701  0.000416  0.000180  0.043995     2.307
   1.05689  0.00705 -0.01212 -0.79403  0.000487  0.000206  0.038427     2.362
   1.05960  0.00924 -0.01371 -0.83373  0.000557  0.000234  0.034770     2.377
   1.06254  0.01171 -0.01530 -0.86835  0.000614  0.000259  0.033170     2.367
   1.06576  0.01450 -0.01689 -0.90114  0.000666  0.000282  0.031885     2.361
   1.06931  0.01766 -0.01852 -0.92717  0.000741  0.000310  0.028552     2.394
   1.07328  0.02125 -0.02021 -0.95126  0.000802  0.000336  0.027214     2.389
   1.07773  0.02534 -0.02197 -0.97642  0.000856  0.000360  0.026528     2.375
   1.08275  0.03002 -0.02380 -1.00008  0.000924  0.000387  0.024950     2.385
   1.08845  0.03539 -0.02569 -1.02179  0.000998  0.000417  0.023366     2.395
   1.09493  0.04158 -0.02763 -1.04212  0.001077  0.000448  0.021935     2.402
   1.10237  0.04875 -0.02960 -1.05767  0.001188  0.000488  0.019487     2.436
   1.11095  0.05710 -0.03158 -1.06660  0.001335  0.000537  0.016583     2.487
   1.12083  0.06678 -0.03358 -1.07372  0.001469  0.000588  0.015008     2.498
   1.13204  0.07781 -0.03556 -1.07890  0.001617  0.000643  0.013471     2.513
   1.14448  0.09010 -0.03747 -1.08335  0.001761  0.000700  0.012370     2.517
   1.15809  0.10359 -0.03926 -1.08547  0.001932  0.000761  0.011015     2.540
   1.17266  0.11806 -0.04096 -1.08803  0.002073  0.000818  0.010360     2.534
   1.18781  0.13314 -0.04249 -1.09134  0.002197  0.000871  0.009943     2.521
   1.20335  0.14862 -0.04385 -1.09435  0.002326  0.000923  0.009438     2.519
   1.21923  0.16445 -0.04503 -1.09644  0.002465  0.000975  0.008841     2.527
   1.23540  0.18059 -0.04604 -1.09759  0.002611  0.001028  0.008242     2.540
   1.25175  0.19691 -0.04691 -1.09938  0.002724  0.001075  0.007976     2.533
   1.26813  0.21328 -0.04763 -1.10107  0.002835  0.001121  0.007697     2.530
   1.28457  0.22971 -0.04819 -1.10249  0.002949  0.001165  0.007400     2.531
   1.30115  0.24629 -0.04860 -1.10313  0.003079  0.001211  0.007009     2.542
   1.31783  0.26296 -0.04890 -1.10378  0.003195  0.001255  0.006731     2.546
   1.33448  0.27961 -0.04908 -1.10495  0.003285  0.001294  0.006605     2.539
   1.35110  0.29624 -0.04912 -1.10546  0.003399  0.001335  0.006345     2.545
   1.36778  0.31291 -0.04903 -1.10560  0.003516  0.001377  0.006074     2.554
   1.38450  0.32963 -0.04882 -1.10567  0.003627  0.001417  0.005852     2.559
   1.40120  0.34633 -0.04849 -1.10539  0.003745  0.001458  0.005609     2.568
   1.41786  0.36298 -0.04803 -1.10480  0.003867  0.001499  0.005362     2.579
   1.43449  0.37961 -0.04745 -1.10375  0.004000  0.001542  0.005087     2.595
   1.45114  0.39623 -0.04673 -1.10216  0.004149  0.001586  0.004780     2.616
   1.46777  0.41285 -0.04588 -1.09981  0.004325  0.001633  0.004408     2.648
   1.48439  0.42943 -0.04489 -1.09722  0.004500  0.001680  0.004081     2.678
   1.50097  0.44597 -0.04378 -1.09374  0.004720  0.001733  0.003663     2.724
   1.51751  0.46247 -0.04253 -1.08969  0.004968  0.001788  0.003231     2.779
   1.53401  0.47892 -0.04112 -1.08479  0.005280  0.001848  0.002722     2.857
   1.55050  0.49532 -0.03957 -1.07927  0.005659  0.001912  0.002176     2.960
   1.56702  0.51176 -0.03785 -1.07326  0.006134  0.001980  0.001592     3.098
   1.58368  0.52831 -0.03597 -1.06714  0.006716  0.002049  0.001014     3.278
   1.60055  0.54506 -0.03395 -1.06139  0.007381  0.002115  0.000518     3.489
   1.61761  0.56199 -0.03181 -1.05622  0.008116  0.002176  0.000126     3.729
   1.63483  0.57906 -0.02959 -1.05166  0.008906  0.002232 -0.000155     3.990
   1.65218  0.59626 -0.02732 -1.04758  0.009727  0.002284 -0.000332     4.259
   1.66962  0.61355 -0.02500 -1.04388  0.010572  0.002333 -0.000432     4.531
   1.68712  0.63090 -0.02268 -1.04057  0.011409  0.002379 -0.000478     4.795
   1.70462  0.64824 -0.02037 -1.03763  0.012231  0.002422 -0.000492     5.049
   1.72205  0.66552 -0.01809 -1.03500  0.013029  0.002463 -0.000490     5.290
   1.73939  0.68272 -0.01585 -1.03263  0.013790  0.002501 -0.000482     5.514
   1.75663  0.69982 -0.01367 -1.03047  0.014499  0.002537 -0.000471     5.715
   1.77378  0.71684 -0.01156 -1.02847  0.015141  0.002572 -0.000459     5.887
   1.79085  0.73379 -0.00953 -1.02658  0.015705  0.002606 -0.000448     6.026
   1.80784  0.75067 -0.00760 -1.02479  0.016190  0.002640 -0.000438     6.133
   1.82474  0.76746 -0.00576 -1.02305  0.016579  0.002673 -0.000430     6.202
   1.84154  0.78418 -0.00404 -1.02134  0.016867  0.002707 -0.000423     6.232
   1.85823  0.80079 -0.00245 -1.01966  0.017043  0.002740 -0.000418     6.219
   1.87481  0.81731 -0.00100 -1.01796  0.017093  0.002775 -0.000414     6.161
   1.89126  0.83371  0.00030 -1.01624  0.017008  0.002809 -0.000411     6.054
   1.90759  0.85000  0.00143 -1.01449  0.016776  0.002845 -0.000409     5.896
   1.92381  0.86619  0.00238 -1.01267  0.016390  0.002882 -0.000408     5.687
   1.93987  0.88223  0.00314 -1.01079  0.015852  0.002920 -0.000404     5.430
   1.95573  0.89808  0.00370 -1.00885  0.015155  0.002958 -0.000394     5.124
   1.97131  0.91366  0.00404 -1.00688  0.014298  0.002995 -0.000365     4.774
   1.98653  0.92887  0.00415 -1.00493  0.013278  0.003031 -0.000282     4.381
   2.00124  0.94358  0.00401 -1.00311  0.012115  0.003064 -0.000086     3.955
   2.01526  0.95760  0.00361 -1.00213  0.010842  0.003081  0.000300     3.518
   2.02837  0.97069  0.00296 -1.00369  0.009498  0.003060  0.000952     3.104
   2.04040  0.98268  0.00205 -1.00985  0.008142  0.002978  0.001935     2.734
   2.05125  0.99348  0.00090 -1.02254  0.006838  0.002826  0.003329     2.420
   2.05783  1.00000  0.00000 -1.01621  0.007449  0.002915  0.002630     2.555
   2.05783  1.00010 -0.00002  1.01621  0.104605  0.017329  0.000000     6.036
   2.06446  1.00660 -0.00133  1.01242  0.099150  0.017841  0.000000     5.557
   2.07221  1.01424 -0.00262  1.00823  0.096426  0.018397  0.000000     5.241
   2.08127  1.02320 -0.00397  1.00317  0.093679  0.019063  0.000000     4.914
   2.09186  1.03368 -0.00540  0.99700  0.090771  0.019873  0.000000     4.568
   2.10423  1.04596 -0.00694  0.98934  0.087562  0.020876  0.000000     4.194
   2.11869  1.06033 -0.00858  0.97955  0.083978  0.022157  0.000000     3.790
   2.13560  1.07714 -0.01034  0.96720  0.079958  0.023781  0.000000     3.362
   2.15535  1.09681 -0.01221  0.95613  0.075261  0.025240  0.000000     2.982
   2.17845  1.11982 -0.01419  0.94640  0.069962  0.026512  0.000000     2.639
   2.20544  1.14673 -0.01629  0.93875  0.064177  0.027495  0.000000     2.334
   2.23698  1.17820 -0.01849  0.93405  0.058111  0.028082  0.000000     2.069
   2.27386  1.21500 -0.02077  0.93289  0.052057  0.028220  0.000000     1.845
   2.31695  1.25803 -0.02310  0.93536  0.046350  0.027941  0.000000     1.659
   2.36732  1.30834 -0.02547  0.94087  0.041279  0.027360  0.000000     1.509
   2.42619  1.36717 -0.02781  0.94828  0.037013  0.026629  0.000000     1.390
   2.49501  1.43595 -0.03008  0.95634  0.033574  0.025886  0.000000     1.297
   2.57543  1.51634 -0.03220  0.96408  0.030878  0.025215  0.000000     1.225
   2.66944  1.61033 -0.03409  0.97096  0.028799  0.024648  0.000000     1.168
   2.77931  1.72019 -0.03561  0.97682  0.027215  0.024187  0.000000     1.125
   2.90773  1.84860 -0.03666  0.98167  0.026019  0.023817  0.000000     1.092
   3.05782  1.99870 -0.03705  0.98794  0.024932  0.023355  0.000000     1.068
