#    s        x        y     Ue/Vinf    Dstar     Theta      Cf       H
   0.00000  1.00000  0.00000  1.04399  0.120445  0.020425 -0.000059     5.897
   0.00668  0.99360  0.00192  1.04523  0.117401  0.020236 -0.000060     5.802
   0.01807  0.98272  0.00530  1.04763  0.114121  0.019878 -0.000061     5.741
   0.03106  0.97032  0.00914  1.05050  0.110514  0.019463 -0.000063     5.678
   0.04516  0.95680  0.01317  1.05379  0.106824  0.019005 -0.000065     5.621
   0.06006  0.94246  0.01720  1.05746  0.103189  0.018509 -0.000067     5.575
   0.07565  0.92739  0.02118  1.06153  0.099651  0.017980 -0.000069     5.542
   0.09186  0.91167  0.02516  1.06601  0.096173  0.017419 -0.000071     5.521
   0.10852  0.89549  0.02915  1.07089  0.092717  0.016832 -0.000074     5.508
   0.12544  0.87905  0.03313  1.07614  0.089299  0.016226 -0.000077     5.503
   0.14250  0.86245  0.03708  1.08176  0.085933  0.015605 -0.000081     5.507
   0.15964  0.84577  0.04099  1.08778  0.082627  0.014968 -0.000085     5.520
   0.17681  0.82904  0.04484  1.09422  0.079385  0.014318 -0.000089     5.544
   0.19398  0.81229  0.04864  1.10111  0.076214  0.013655 -0.000094     5.581
   0.21115  0.79553  0.05238  1.10851  0.073118  0.012977 -0.000099     5.634
   0.22833  0.77875  0.05606  1.11648  0.070089  0.012284 -0.000105     5.706
   0.24546  0.76200  0.05967  1.12507  0.067130  0.011577 -0.000112     5.799
   0.26249  0.74535  0.06319  1.13432  0.064266  0.010856 -0.000120     5.920
   0.27941  0.72877  0.06660  1.14433  0.061514  0.010120 -0.000128     6.078
   0.29629  0.71222  0.06990  1.15524  0.058870  0.009365 -0.000138     6.286
   0.31313  0.69568  0.07308  1.16719  0.056332  0.008589 -0.000150     6.559
   0.32994  0.67915  0.07616  1.18036  0.053895  0.007787 -0.000164     6.921
   0.34670  0.66266  0.07911  1.19496  0.051549  0.006959 -0.000182     7.408
   0.36339  0.64620  0.08193  1.21126  0.049291  0.006099 -0.000206     8.082
   0.38005  0.62976  0.08462  1.22983  0.047108  0.005194 -0.000240     9.070
   0.39672  0.61329  0.08718  1.25168  0.044948  0.004216 -0.000294    10.661
   0.41338  0.59681  0.08962  1.27842  0.042729  0.003127 -0.000359    13.665
   0.42997  0.58038  0.09191  1.31525  0.040255  0.001764 -0.000703    22.826
   0.44649  0.56400  0.09406  1.31547  0.038547  0.001760 -0.000706    21.905
   0.46301  0.54760  0.09605  1.31564  0.036679  0.001758 -0.000708    20.867
   0.47954  0.53117  0.09790  1.31579  0.034697  0.001757 -0.000710    19.749
   0.49603  0.51477  0.09961  1.31591  0.032638  0.001757 -0.000712    18.578
   0.51242  0.49845  0.10115  1.31603  0.030547  0.001757 -0.000714    17.387
   0.52875  0.48218  0.10252  1.31618  0.028466  0.001757 -0.000717    16.205
   0.54509  0.46588  0.10371  1.31637  0.026388  0.001756 -0.000721    15.030
   0.56144  0.44957  0.10475  1.31661  0.024317  0.001754 -0.000726    13.865
   0.57774  0.43329  0.10561  1.31693  0.022269  0.001751 -0.000732    12.720
   0.59394  0.41711  0.10630  1.31737  0.020271  0.001746 -0.000741    11.611
   0.61007  0.40098  0.10679  1.31799  0.018345  0.001738 -0.000752    10.552
   0.62617  0.38489  0.10708  1.31887  0.016496  0.001728 -0.000768     9.545
   0.64227  0.36879  0.10718  1.32008  0.014735  0.001714 -0.000788     8.596
   0.65836  0.35270  0.10708  1.32175  0.013049  0.001696 -0.000817     7.694
   0.67432  0.33674  0.10680  1.32400  0.011462  0.001673 -0.000858     6.850
   0.69010  0.32097  0.10629  1.32707  0.010022  0.001645 -0.000913     6.093
   0.70583  0.30526  0.10554  1.33122  0.008746  0.001610 -0.000965     5.434
   0.72167  0.28945  0.10454  1.33674  0.007625  0.001567 -0.000950     4.867
   0.73747  0.27369  0.10335  1.34378  0.006593  0.001517 -0.000723     4.346
   0.75302  0.25820  0.10195  1.35217  0.005702  0.001462 -0.000137     3.899
   0.76841  0.24291  0.10027  1.36201  0.005012  0.001402  0.000706     3.575
   0.78386  0.22758  0.09831  1.37305  0.004476  0.001337  0.001657     3.349
   0.79934  0.21226  0.09610  1.38491  0.004020  0.001269  0.002758     3.168
   0.81467  0.19713  0.09366  1.39694  0.003633  0.001201  0.003969     3.024
   0.82983  0.18221  0.09095  1.40815  0.003335  0.001137  0.005028     2.932
   0.84493  0.16741  0.08797  1.41853  0.003099  0.001077  0.005902     2.877
   0.85995  0.15275  0.08473  1.42890  0.002870  0.001016  0.006914     2.824
   0.87475  0.13836  0.08125  1.43880  0.002660  0.000957  0.007972     2.779
   0.88915  0.12444  0.07757  1.44854  0.002444  0.000897  0.009383     2.723
   0.90314  0.11101  0.07364  1.45627  0.002277  0.000843  0.010401     2.702
   0.91683  0.09797  0.06946  1.46321  0.002140  0.000790  0.011027     2.709
   0.92993  0.08560  0.06517  1.47203  0.001957  0.000733  0.012688     2.672
   0.94206  0.07425  0.06087  1.48002  0.001761  0.000676  0.015344     2.605
   0.95332  0.06387  0.05649  1.48221  0.001661  0.000631  0.015824     2.630
   0.96371  0.05444  0.05215  1.48656  0.001554  0.000585  0.016454     2.655
   0.97301  0.04611  0.04801  1.49380  0.001409  0.000536  0.018776     2.631
   0.98119  0.03891  0.04412  1.49944  0.001273  0.000490  0.021627     2.599
   0.98837  0.03273  0.04046  1.50257  0.001149  0.000448  0.025001     2.563
   0.99470  0.02743  0.03701  1.50219  0.001043  0.000411  0.028437     2.535
   1.00030  0.02288  0.03375  1.49851  0.000948  0.000378  0.032184     2.506
   1.00527  0.01898  0.03066  1.49105  0.000866  0.000348  0.035890     2.484
   1.00973  0.01561  0.02774  1.48013  0.000784  0.000321  0.040984     2.445
   1.01375  0.01272  0.02495  1.46255  0.000724  0.000297  0.044344     2.434
   1.01739  0.01024  0.02228  1.44182  0.000661  0.000275  0.049419     2.403
   1.02073  0.00811  0.01971  1.41381  0.000607  0.000255  0.054045     2.378
   1.02380  0.00630  0.01724  1.37872  0.000562  0.000238  0.058080     2.358
   1.02664  0.00476  0.01485  1.33638  0.000519  0.000223  0.062900     2.326
   1.02926  0.00350  0.01255  1.28458  0.000488  0.000211  0.064993     2.314
   1.03171  0.00246  0.01033  1.22596  0.000456  0.000200  0.068691     2.277
   1.03400  0.00163  0.00819  1.15951  0.000448  0.000194  0.064310     2.308
   1.03618  0.00098  0.00612  1.09663  0.000419  0.000183  0.066251     2.287
   1.03826  0.00048  0.00410  1.02993  0.000407  0.000173  0.060420     2.349
   1.04024  0.00015  0.00214  0.96539  0.000360  0.000156  0.066666     2.307
   1.04215  0.00001  0.00024  0.87801  0.000326  0.000141  0.067054     2.305
   1.04400  0.00012 -0.00161  0.76154  0.000290  0.000129  0.069123     2.244
   1.04587  0.00052 -0.00343  0.60332  0.000285  0.000129  0.057477     2.210
   1.04780  0.00123 -0.00524  0.43805  0.000297  0.000133  0.039050     2.238
   1.04986  0.00223 -0.00703  0.27343  0.000302  0.000137  0.024664     2.205
   1.05205  0.00354 -0.00879  0.11743  0.000344  0.000154  0.009108     2.230
   1.05438  0.00514 -0.01048 -0.02130  0.000344  0.000154  0.001654     2.230
   1.05689  0.00705 -0.01212 -0.13654  0.000420  0.000187  0.008537     2.248
   1.05960  0.00924 -0.01371 -0.22566  0.000473  0.000210  0.012456     2.252
   1.06254  0.01171 -0.01530 -0.30803  0.000500  0.000223  0.016247     2.242
   1.06576  0.01450 -0.01689 -0.38016  0.000556  0.000244  0.017390     2.281
   1.06931  0.01766 -0.01852 -0.44403  0.000603  0.000265  0.018919     2.271
   1.07328  0.02125 -0.02021 -0.49921  0.000674  0.000292  0.018441     2.305
   1.07773  0.02534 -0.02197 -0.55279  0.000714  0.000314  0.019764     2.277
   1.08275  0.03002 -0.02380 -0.60479  0.000772  0.000336  0.019670     2.295
   1.08845  0.03539 -0.02569 -0.65171  0.000841  0.000364  0.019171     2.311
   1.09493  0.04158 -0.02763 -0.69550  0.000911  0.000393  0.018786     2.316
   1.10237  0.04875 -0.02960 -0.73446  0.001003  0.000429  0.017646     2.339
   1.11095  0.05710 -0.03158 -0.76756  0.001113  0.000472  0.016259     2.361
   1.12083  0.06678 -0.03358 -0.79628  0.001231  0.000519  0.015058     2.374
   1.13204  0.07781 -0.03556 -0.82354  0.001338  0.000565  0.014399     2.369
   1.14448  0.09010 -0.03747 -0.84653  0.001474  0.000616  0.013159     2.391
   1.15809  0.10359 -0.03926 -0.86617  0.001606  0.000669  0.012243     2.400
   1.17266  0.11806 -0.04096 -0.88359  0.001734  0.000722  0.011530     2.403
   1.18781  0.13314 -0.04249 -0.90038  0.001838  0.000768  0.011192     2.393
   1.20335  0.14862 -0.04385 -0.91566  0.001946  0.000813  0.010746     2.394
   1.21923  0.16445 -0.04503 -0.92811  0.002073  0.000860  0.010071     2.409
   1.23540  0.18059 -0.04604 -0.93838  0.002199  0.000908  0.009477     2.422
   1.25175  0.19691 -0.04691 -0.94880  0.002289  0.000949  0.009302     2.412
   1.26813  0.21328 -0.04763 -0.95841  0.002383  0.000989  0.009039     2.410
   1.28457  0.22971 -0.04819 -0.96668  0.002487  0.001029  0.008674     2.417
   1.30115  0.24629 -0.04860 -0.97365  0.002598  0.001070  0.008273     2.428
   1.31783  0.26296 -0.04890 -0.98048  0.002688  0.001108  0.008062     2.427
   1.33448  0.27961 -0.04908 -0.98745  0.002761  0.001142  0.007965     2.419
   1.35110  0.29624 -0.04912 -0.99304  0.002863  0.001179  0.007650     2.429
   1.36778  0.31291 -0.04903 -0.99849  0.002948  0.001213  0.007461     2.430
   1.38450  0.32963 -0.04882 -1.00323  0.003042  0.001249  0.007219     2.436
   1.40120  0.34633 -0.04849 -1.00778  0.003125  0.001282  0.007047     2.438
   1.41786  0.36298 -0.04803 -1.01176  0.003215  0.001316  0.006839     2.443
   1.43449  0.37961 -0.04745 -1.01516  0.003310  0.001351  0.006613     2.451
   1.45114  0.39623 -0.04673 -1.01786  0.003414  0.001387  0.006351     2.462
   1.46777  0.41285 -0.04588 -1.02000  0.003522  0.001423  0.006091     2.475
   1.48439  0.42943 -0.04489 -1.02157  0.003635  0.001461  0.005824     2.488
   1.50097  0.44597 -0.04378 -1.02240  0.003762  0.001501  0.005523     2.507
   1.51751  0.46247 -0.04253 -1.02257  0.003898  0.001542  0.005210     2.528
   1.53401  0.47892 -0.04112 -1.02164  0.004067  0.001588  0.004809     2.561
   1.55050  0.49532 -0.03957 -1.01973  0.004264  0.001638  0.004367     2.603
   1.56702  0.51176 -0.03785 -1.01658  0.004512  0.001695  0.003839     2.663
   1.58368  0.52831 -0.03597 -1.01237  0.004809  0.001757  0.003270     2.737
   1.60055  0.54506 -0.03395 -1.00760  0.005136  0.001822  0.002739     2.819
   1.61761  0.56199 -0.03181 -1.00251  0.005488  0.001889  0.002260     2.905
   1.63483  0.57906 -0.02959 -0.99739  0.005845  0.001955  0.001859     2.990
   1.65218  0.59626 -0.02732 -0.99231  0.006208  0.002021  0.001521     3.072
   1.66962  0.61355 -0.02500 -0.98741  0.006565  0.002085  0.001249     3.148
   1.68712  0.63090 -0.02268 -0.98272  0.006910  0.002148  0.001032     3.217
   1.70462  0.64824 -0.02037 -0.97827  0.007236  0.002208  0.000863     3.277
   1.72205  0.66552 -0.01809 -0.97406  0.007544  0.002267  0.000733     3.328
   1.73939  0.68272 -0.01585 -0.97008  0.007833  0.002323  0.000630     3.372
   1.75663  0.69982 -0.01367 -0.96633  0.008093  0.002378  0.000557     3.404
   1.77378  0.71684 -0.01156 -0.96280  0.008316  0.002430  0.000513     3.422
   1.79085  0.73379 -0.00953 -0.95950  0.008501  0.002481  0.000493     3.427
   1.80784  0.75067 -0.00760 -0.95640  0.008646  0.002529  0.000495     3.419
   1.82474  0.76746 -0.00576 -0.95352  0.008748  0.002575  0.000518     3.397
   1.84154  0.78418 -0.00404 -0.95089  0.008801  0.002619  0.000566     3.360
   1.85823  0.80079 -0.00245 -0.94852  0.008805  0.002660  0.000637     3.311
   1.87481  0.81731 -0.00100 -0.94648  0.008752  0.002696  0.000739     3.246
   1.89126  0.83371  0.00030 -0.94487  0.008637  0.002728  0.000878     3.166
   1.90759  0.85000  0.00143 -0.94379  0.008459  0.002753  0.001060     3.073
   1.92381  0.86619  0.00238 -0.94342  0.008217  0.002769  0.001294     2.968
   1.93987  0.88223  0.00314 -0.94394  0.007920  0.002774  0.001585     2.855
   1.95573  0.89808  0.00370 -0.94565  0.007565  0.002766  0.001948     2.735
   1.97131  0.91366  0.00404 -0.94889  0.007155  0.002741  0.002402     2.610
   1.98653  0.92887  0.00415 -0.95426  0.006681  0.002694  0.002986     2.480
   2.00124  0.94358  0.00401 -0.96243  0.006151  0.002621  0.003741     2.347
   2.01526  0.95760  0.00361 -0.97430  0.005573  0.002518  0.004731     2.214
   2.02837  0.97069  0.00296 -0.99145  0.004940  0.002377  0.006097     2.078
   2.04040  0.98268  0.00205 -1.01632  0.004255  0.002193  0.008081     1.940
   2.05125  0.99348  0.00090 -1.05552  0.003476  0.001940  0.011417     1.792
   2.05783  1.00000  0.00000 -1.04399  0.003886  0.002055  0.009426     1.891
   2.05783  1.00010 -0.00002  1.04399  0.124331  0.022480  0.000000     5.531
   2.06446  1.00660 -0.00132  1.04098  0.120369  0.022963  0.000000     5.242
   2.07221  1.01425 -0.00256  1.03769  0.118509  0.023490  0.000000     5.045
   2.08127  1.02322 -0.00384  1.03376  0.116630  0.024116  0.000000     4.836
   2.09186  1.03372 -0.00517  1.02906  0.114613  0.024866  0.000000     4.609
   2.10423  1.04602 -0.00655  1.02336  0.112331  0.025778  0.000000     4.358
   2.11869  1.06041 -0.00799  1.01636  0.109696  0.026902  0.000000     4.078
   2.13560  1.07724 -0.00947  1.00759  0.106634  0.028317  0.000000     3.766
   2.15535  1.09694 -0.01098  0.99646  0.103092  0.030132  0.000000     3.421
   2.17845  1.11999 -0.01250  0.98496  0.098855  0.032026  0.000000     3.087
   2.20544  1.14694 -0.01399  0.97465  0.093834  0.033733  0.000000     2.782
   2.23698  1.17845 -0.01540  0.96540  0.088115  0.035259  0.000000     2.499
   2.27386  1.21530 -0.01669  0.95792  0.081811  0.036479  0.000000     2.243
   2.31695  1.25838 -0.01776  0.95286  0.075136  0.037285  0.000000     2.015
   2.36732  1.30875 -0.01853  0.95068  0.068393  0.037621  0.000000     1.818
   2.42619  1.36762 -0.01886  0.95143  0.061929  0.037510  0.000000     1.651
   2.49501  1.43643 -0.01861  0.95468  0.056058  0.037054  0.000000     1.513
   2.57543  1.51685 -0.01758  0.95962  0.050984  0.036399  0.000000     1.401
   2.66944  1.61083 -0.01555  0.96530  0.046773  0.035685  0.000000     1.311
   2.77931  1.72065 -0.01224  0.97099  0.043373  0.035006  0.000000     1.239
   2.90773  1.84898 -0.00731  0.97624  0.040672  0.034405  0.000000     1.182
   3.05782  1.99891 -0.00036  0.98623  0.037824  0.033316  0.000000     1.135
