#    s        x        y     Ue/Vinf    Dstar     Theta      Cf       H
   0.00000  1.00000  0.00000  1.04981  0.123872  0.019145 -0.000061     6.470
   0.00668  0.99360  0.00192  1.05110  0.120770  0.018948 -0.000062     6.374
   0.01807  0.98272  0.00530  1.05359  0.117490  0.018579 -0.000063     6.324
   0.03106  0.97032  0.00914  1.05655  0.113895  0.018151 -0.000065     6.275
   0.04516  0.95680  0.01317  1.05994  0.110223  0.017678 -0.000067     6.235
   0.06006  0.94246  0.01720  1.06371  0.106607  0.017169 -0.000070     6.209
   0.07565  0.92739  0.02118  1.06789  0.103085  0.016626 -0.000072     6.200
   0.09186  0.91167  0.02516  1.07248  0.099620  0.016052 -0.000075     6.206
   0.10852  0.89549  0.02915  1.07747  0.096171  0.015452 -0.000078     6.224
   0.12544  0.87905  0.03313  1.08283  0.092753  0.014834 -0.000082     6.253
   0.14250  0.86245  0.03708  1.08856  0.089379  0.014200 -0.000086     6.294
   0.15964  0.84577  0.04099  1.09469  0.086056  0.013554 -0.000090     6.349
   0.17681  0.82904  0.04484  1.10122  0.082788  0.012894 -0.000095     6.420
   0.19398  0.81229  0.04864  1.10821  0.079580  0.012223 -0.000100     6.511
   0.21115  0.79553  0.05238  1.11570  0.076435  0.011538 -0.000106     6.624
   0.22833  0.77875  0.05606  1.12376  0.073345  0.010840 -0.000113     6.766
   0.24546  0.76200  0.05967  1.13243  0.070312  0.010127 -0.000121     6.943
   0.26249  0.74535  0.06319  1.14176  0.067359  0.009403 -0.000130     7.163
   0.27941  0.72877  0.06660  1.15186  0.064501  0.008664 -0.000141     7.444
   0.29629  0.71222  0.06990  1.16287  0.061735  0.007907 -0.000154     7.807
   0.31313  0.69568  0.07308  1.17495  0.059053  0.007128 -0.000170     8.284
   0.32994  0.67915  0.07616  1.18832  0.056451  0.006324 -0.000191     8.927
   0.34670  0.66266  0.07911  1.20326  0.053912  0.005487 -0.000220     9.826
   0.36339  0.64620  0.08193  1.22051  0.051410  0.004593 -0.000262    11.193
   0.38005  0.62976  0.08462  1.24085  0.048918  0.003625 -0.000332    13.493
   0.39672  0.61329  0.08718  1.26669  0.046314  0.002504 -0.000353    18.499
   0.41338  0.59681  0.08962  1.28607  0.043867  0.001755 -0.000689    24.991
   0.42997  0.58038  0.09191  1.28618  0.041820  0.001755 -0.000690    23.830
   0.44649  0.56400  0.09406  1.28625  0.039662  0.001756 -0.000691    22.587
   0.46301  0.54760  0.09605  1.28630  0.037442  0.001758 -0.000692    21.302
   0.47954  0.53117  0.09790  1.28635  0.035172  0.001760 -0.000693    19.987
   0.49603  0.51477  0.09961  1.28639  0.032868  0.001762 -0.000694    18.653
   0.51242  0.49845  0.10115  1.28643  0.030574  0.001764 -0.000696    17.330
   0.52875  0.48218  0.10252  1.28652  0.028315  0.001765 -0.000698    16.038
   0.54509  0.46588  0.10371  1.28665  0.026090  0.001766 -0.000702    14.776
   0.56144  0.44957  0.10475  1.28686  0.023893  0.001765 -0.000707    13.540
   0.57774  0.43329  0.10561  1.28716  0.021737  0.001762 -0.000713    12.337
   0.59394  0.41711  0.10630  1.28761  0.019663  0.001757 -0.000722    11.191
   0.61007  0.40098  0.10679  1.28828  0.017679  0.001749 -0.000735    10.108
   0.62617  0.38489  0.10708  1.28924  0.015785  0.001738 -0.000752     9.084
   0.64227  0.36879  0.10718  1.29060  0.013998  0.001722 -0.000776     8.129
   0.65836  0.35270  0.10708  1.29250  0.012309  0.001701 -0.000810     7.235
   0.67432  0.33674  0.10680  1.29511  0.010734  0.001675 -0.000858     6.407
   0.69010  0.32097  0.10629  1.29868  0.009318  0.001643 -0.000918     5.672
   0.70583  0.30526  0.10554  1.30351  0.008094  0.001603 -0.000934     5.050
   0.72167  0.28945  0.10454  1.30986  0.007023  0.001555 -0.000806     4.517
   0.73747  0.27369  0.10335  1.31769  0.006062  0.001501 -0.000365     4.040
   0.75302  0.25820  0.10195  1.32696  0.005242  0.001440  0.000479     3.639
   0.76841  0.24291  0.10027  1.33758  0.004627  0.001374  0.001493     3.367
   0.78386  0.22758  0.09831  1.34889  0.004154  0.001306  0.002542     3.180
   0.79934  0.21226  0.09610  1.36053  0.003749  0.001238  0.003716     3.029
   0.81467  0.19713  0.09366  1.37172  0.003412  0.001171  0.004917     2.914
   0.82983  0.18221  0.09095  1.38171  0.003150  0.001109  0.005950     2.841
   0.84493  0.16741  0.08797  1.39073  0.002934  0.001050  0.006853     2.794
   0.85995  0.15275  0.08473  1.39926  0.002735  0.000992  0.007765     2.757
   0.87475  0.13836  0.08125  1.40758  0.002535  0.000934  0.008882     2.715
   0.88915  0.12444  0.07757  1.41518  0.002340  0.000876  0.010219     2.670
   0.90314  0.11101  0.07364  1.42093  0.002179  0.000823  0.011325     2.647
   0.91683  0.09797  0.06946  1.42521  0.002057  0.000773  0.011808     2.663
   0.92993  0.08560  0.06517  1.43192  0.001877  0.000716  0.013639     2.622
   0.94206  0.07425  0.06087  1.43689  0.001691  0.000661  0.016315     2.560
   0.95332  0.06387  0.05649  1.43571  0.001595  0.000618  0.016846     2.582
   0.96371  0.05444  0.05215  1.43649  0.001495  0.000573  0.017451     2.609
   0.97301  0.04611  0.04801  1.44014  0.001359  0.000525  0.019704     2.588
   0.98119  0.03891  0.04412  1.44219  0.001227  0.000480  0.022666     2.556
   0.98837  0.03273  0.04046  1.44092  0.001118  0.000440  0.025342     2.538
   0.99470  0.02743  0.03701  1.43772  0.001004  0.000403  0.029552     2.493
   1.00030  0.02288  0.03375  1.42863  0.000921  0.000372  0.032555     2.478
   1.00527  0.01898  0.03066  1.41698  0.000843  0.000343  0.035878     2.461
   1.00973  0.01561  0.02774  1.40203  0.000764  0.000315  0.040614     2.425
   1.01375  0.01272  0.02495  1.38039  0.000703  0.000292  0.044296     2.407
   1.01739  0.01024  0.02228  1.35402  0.000646  0.000271  0.048250     2.387
   1.02073  0.00811  0.01971  1.32162  0.000594  0.000251  0.052398     2.363
   1.02380  0.00630  0.01724  1.28210  0.000551  0.000235  0.055590     2.349
   1.02664  0.00476  0.01485  1.23512  0.000505  0.000219  0.060907     2.305
   1.02926  0.00350  0.01255  1.17693  0.000482  0.000209  0.060506     2.310
   1.03171  0.00246  0.01033  1.11533  0.000449  0.000198  0.063861     2.271
   1.03400  0.00163  0.00819  1.04435  0.000437  0.000191  0.060501     2.288
   1.03618  0.00098  0.00612  0.97515  0.000416  0.000182  0.059408     2.287
   1.03826  0.00048  0.00410  0.90375  0.000395  0.000171  0.056597     2.311
   1.04024  0.00015  0.00214  0.82970  0.000359  0.000156  0.057267     2.308
   1.04215  0.00001  0.00024  0.73660  0.000320  0.000141  0.058996     2.273
   1.04400  0.00012 -0.00161  0.61242  0.000296  0.000132  0.054486     2.245
   1.04587  0.00052 -0.00343  0.46172  0.000286  0.000128  0.043037     2.229
   1.04780  0.00123 -0.00524  0.29601  0.000295  0.000133  0.027187     2.212
   1.04986  0.00223 -0.00703  0.13815  0.000321  0.000144  0.011458     2.230
   1.05205  0.00354 -0.00879 -0.01076  0.000321  0.000144  0.000894     2.230
   1.05438  0.00514 -0.01048 -0.13712  0.000383  0.000171  0.009477     2.238
   1.05689  0.00705 -0.01212 -0.24305  0.000416  0.000185  0.015378     2.244
   1.05960  0.00924 -0.01371 -0.32745  0.000480  0.000210  0.017295     2.284
   1.06254  0.01171 -0.01530 -0.40246  0.000512  0.000227  0.020611     2.249
   1.06576  0.01450 -0.01689 -0.46722  0.000575  0.000250  0.020343     2.299
   1.06931  0.01766 -0.01852 -0.52208  0.000630  0.000275  0.020842     2.293
   1.07328  0.02125 -0.02021 -0.57269  0.000687  0.000299  0.020815     2.301
   1.07773  0.02534 -0.02197 -0.62301  0.000730  0.000319  0.021571     2.288
   1.08275  0.03002 -0.02380 -0.67099  0.000788  0.000342  0.021198     2.304
   1.08845  0.03539 -0.02569 -0.71237  0.000868  0.000372  0.019922     2.331
   1.09493  0.04158 -0.02763 -0.75298  0.000928  0.000400  0.019944     2.318
   1.10237  0.04875 -0.02960 -0.78913  0.001022  0.000435  0.018439     2.348
   1.11095  0.05710 -0.03158 -0.81752  0.001146  0.000481  0.016456     2.384
   1.12083  0.06678 -0.03358 -0.84240  0.001262  0.000528  0.015322     2.389
   1.13204  0.07781 -0.03556 -0.86607  0.001374  0.000576  0.014504     2.387
   1.14448  0.09010 -0.03747 -0.88638  0.001506  0.000627  0.013327     2.402
   1.15809  0.10359 -0.03926 -0.90311  0.001648  0.000682  0.012221     2.418
   1.17266  0.11806 -0.04096 -0.91824  0.001774  0.000734  0.011547     2.417
   1.18781  0.13314 -0.04249 -0.93318  0.001878  0.000781  0.011215     2.406
   1.20335  0.14862 -0.04385 -0.94607  0.001998  0.000828  0.010612     2.413
   1.21923  0.16445 -0.04503 -0.95674  0.002124  0.000876  0.009978     2.424
   1.23540  0.18059 -0.04604 -0.96605  0.002242  0.000923  0.009486     2.430
   1.25175  0.19691 -0.04691 -0.97502  0.002341  0.000965  0.009207     2.426
   1.26813  0.21328 -0.04763 -0.98345  0.002436  0.001005  0.008953     2.423
   1.28457  0.22971 -0.04819 -0.99068  0.002541  0.001046  0.008589     2.430
   1.30115  0.24629 -0.04860 -0.99682  0.002651  0.001087  0.008205     2.439
   1.31783  0.26296 -0.04890 -1.00267  0.002747  0.001126  0.007956     2.440
   1.33448  0.27961 -0.04908 -1.00874  0.002823  0.001160  0.007849     2.433
   1.35110  0.29624 -0.04912 -1.01381  0.002918  0.001197  0.007585     2.438
   1.36778  0.31291 -0.04903 -1.01832  0.003014  0.001233  0.007334     2.444
   1.38450  0.32963 -0.04882 -1.02238  0.003108  0.001269  0.007100     2.450
   1.40120  0.34633 -0.04849 -1.02644  0.003189  0.001302  0.006954     2.449
   1.41786  0.36298 -0.04803 -1.02973  0.003285  0.001337  0.006720     2.456
   1.43449  0.37961 -0.04745 -1.03258  0.003381  0.001372  0.006496     2.464
   1.45114  0.39623 -0.04673 -1.03489  0.003483  0.001408  0.006254     2.474
   1.46777  0.41285 -0.04588 -1.03624  0.003606  0.001447  0.005934     2.492
   1.48439  0.42943 -0.04489 -1.03743  0.003716  0.001484  0.005694     2.504
   1.50097  0.44597 -0.04378 -1.03778  0.003847  0.001525  0.005386     2.523
   1.51751  0.46247 -0.04253 -1.03744  0.003991  0.001567  0.005057     2.547
   1.53401  0.47892 -0.04112 -1.03603  0.004168  0.001614  0.004647     2.583
   1.55050  0.49532 -0.03957 -1.03369  0.004375  0.001665  0.004197     2.627
   1.56702  0.51176 -0.03785 -1.03014  0.004635  0.001723  0.003661     2.690
   1.58368  0.52831 -0.03597 -1.02560  0.004948  0.001786  0.003087     2.770
   1.60055  0.54506 -0.03395 -1.02050  0.005299  0.001852  0.002540     2.861
   1.61761  0.56199 -0.03181 -1.01519  0.005670  0.001919  0.002061     2.954
   1.63483  0.57906 -0.02959 -1.00988  0.006053  0.001986  0.001655     3.048
   1.65218  0.59626 -0.02732 -1.00468  0.006442  0.002052  0.001316     3.140
   1.66962  0.61355 -0.02500 -0.99968  0.006830  0.002116  0.001039     3.228
   1.68712  0.63090 -0.02268 -0.99493  0.007201  0.002178  0.000826     3.306
   1.70462  0.64824 -0.02037 -0.99044  0.007556  0.002238  0.000659     3.376
   1.72205  0.66552 -0.01809 -0.98621  0.007890  0.002296  0.000530     3.437
   1.73939  0.68272 -0.01585 -0.98221  0.008206  0.002352  0.000430     3.489
   1.75663  0.69982 -0.01367 -0.97844  0.008489  0.002405  0.000359     3.529
   1.77378  0.71684 -0.01156 -0.97490  0.008733  0.002457  0.000316     3.554
   1.79085  0.73379 -0.00953 -0.97155  0.008934  0.002508  0.000297     3.563
   1.80784  0.75067 -0.00760 -0.96840  0.009092  0.002556  0.000298     3.557
   1.82474  0.76746 -0.00576 -0.96544  0.009201  0.002602  0.000320     3.535
   1.84154  0.78418 -0.00404 -0.96269  0.009256  0.002647  0.000364     3.497
   1.85823  0.80079 -0.00245 -0.96017  0.009257  0.002689  0.000432     3.443
   1.87481  0.81731 -0.00100 -0.95794  0.009195  0.002727  0.000530     3.372
   1.89126  0.83371  0.00030 -0.95608  0.009066  0.002761  0.000663     3.284
   1.90759  0.85000  0.00143 -0.95471  0.008868  0.002788  0.000840     3.180
   1.92381  0.86619  0.00238 -0.95400  0.008601  0.002808  0.001071     3.063
   1.93987  0.88223  0.00314 -0.95415  0.008274  0.002816  0.001359     2.938
   1.95573  0.89808  0.00370 -0.95547  0.007885  0.002810  0.001723     2.806
   1.97131  0.91366  0.00404 -0.95832  0.007439  0.002788  0.002178     2.669
   1.98653  0.92887  0.00415 -0.96332  0.006927  0.002742  0.002766     2.527
   2.00124  0.94358  0.00401 -0.97117  0.006359  0.002669  0.003527     2.383
   2.01526  0.95760  0.00361 -0.98276  0.005744  0.002564  0.004524     2.240
   2.02837  0.97069  0.00296 -0.99970  0.005076  0.002422  0.005895     2.096
   2.04040  0.98268  0.00205 -1.02436  0.004361  0.002234  0.007874     1.952
   2.05125  0.99348  0.00090 -1.06307  0.003561  0.001979  0.011160     1.800
   2.05783  1.00000  0.00000 -1.04981  0.004018  0.002107  0.009058     1.907
   2.05783  1.00010 -0.00002  1.04981  0.127890  0.021252  0.000000     6.018
   2.06446  1.00660 -0.00132  1.04683  0.123748  0.021732  0.000000     5.694
   2.07221  1.01425 -0.00257  1.04355  0.121805  0.022256  0.000000     5.473
   2.08127  1.02321 -0.00386  1.03965  0.119847  0.022877  0.000000     5.239
   2.09186  1.03371 -0.00520  1.03499  0.117747  0.023619  0.000000     4.985
   2.10423  1.04601 -0.00660  1.02937  0.115371  0.024516  0.000000     4.706
   2.11869  1.06040 -0.00807  1.02252  0.112623  0.025613  0.000000     4.397
   2.13560  1.07723 -0.00958  1.01402  0.109415  0.026978  0.000000     4.056
   2.15535  1.09693 -0.01114  1.00322  0.105681  0.028727  0.000000     3.679
   2.17845  1.11997 -0.01272  0.98969  0.101355  0.030944  0.000000     3.275
   2.20544  1.14691 -0.01428  0.97766  0.096123  0.032935  0.000000     2.919
   2.23698  1.17842 -0.01580  0.96689  0.090098  0.034716  0.000000     2.595
   2.27386  1.21527 -0.01721  0.95810  0.083411  0.036156  0.000000     2.307
   2.31695  1.25834 -0.01845  0.95205  0.076302  0.037126  0.000000     2.055
   2.36732  1.30870 -0.01942  0.94927  0.069117  0.037556  0.000000     1.840
   2.42619  1.36757 -0.02002  0.94984  0.062251  0.037473  0.000000     1.661
   2.49501  1.43639 -0.02009  0.95324  0.056057  0.036995  0.000000     1.515
   2.57543  1.51681 -0.01947  0.95852  0.050757  0.036296  0.000000     1.398
   2.66944  1.61080 -0.01794  0.96458  0.046409  0.035537  0.000000     1.306
   2.77931  1.72064 -0.01525  0.97060  0.042941  0.034821  0.000000     1.233
   2.90773  1.84899 -0.01109  0.97611  0.040219  0.034196  0.000000     1.176
   3.05782  1.99897 -0.00508  0.98625  0.037395  0.033100  0.000000     1.130
