#    s        x        y     Ue/Vinf    Dstar     Theta      Cf       H
   0.00000  1.00000  0.00000  1.03989  0.114103  0.017674 -0.000065     6.456
   0.00668  0.99360  0.00192  1.04135  0.110978  0.017468 -0.000066     6.353
   0.01807  0.98272  0.00530  1.04417  0.107823  0.017078 -0.000068     6.314
   0.03106  0.97032  0.00914  1.04756  0.104397  0.016626 -0.000070     6.279
   0.04516  0.95680  0.01317  1.05144  0.100929  0.016126 -0.000073     6.259
   0.06006  0.94246  0.01720  1.05579  0.097542  0.015586 -0.000076     6.258
   0.07565  0.92739  0.02118  1.06061  0.094272  0.015010 -0.000079     6.281
   0.09186  0.91167  0.02516  1.06594  0.091077  0.014399 -0.000083     6.325
   0.10852  0.89549  0.02915  1.07176  0.087913  0.013760 -0.000087     6.389
   0.12544  0.87905  0.03313  1.07803  0.084790  0.013099 -0.000091     6.473
   0.14250  0.86245  0.03708  1.08478  0.081718  0.012422 -0.000096     6.579
   0.15964  0.84577  0.04099  1.09202  0.078702  0.011728 -0.000102     6.711
   0.17681  0.82904  0.04484  1.09981  0.075743  0.011019 -0.000108     6.874
   0.19398  0.81229  0.04864  1.10818  0.072843  0.010295 -0.000116     7.076
   0.21115  0.79553  0.05238  1.11722  0.070004  0.009554 -0.000124     7.327
   0.22833  0.77875  0.05606  1.12703  0.067213  0.008794 -0.000135     7.643
   0.24546  0.76200  0.05967  1.13770  0.064467  0.008017 -0.000147     8.042
   0.26249  0.74535  0.06319  1.14932  0.061784  0.007221 -0.000163     8.556
   0.27941  0.72877  0.06660  1.16210  0.059174  0.006403 -0.000183     9.242
   0.29629  0.71222  0.06990  1.17638  0.056618  0.005550 -0.000211    10.202
   0.31313  0.69568  0.07308  1.19288  0.054083  0.004636 -0.000253    11.666
   0.32994  0.67915  0.07616  1.21238  0.051531  0.003642 -0.000321    14.148
   0.34670  0.66266  0.07911  1.23721  0.048841  0.002484 -0.000337    19.661
   0.36339  0.64620  0.08193  1.25329  0.046401  0.001816 -0.000649    25.554
   0.38005  0.62976  0.08462  1.25337  0.044328  0.001816 -0.000650    24.412
   0.39672  0.61329  0.08718  1.25343  0.042136  0.001817 -0.000650    23.187
   0.41338  0.59681  0.08962  1.25346  0.039865  0.001820 -0.000651    21.909
   0.42997  0.58038  0.09191  1.25347  0.037546  0.001823 -0.000651    20.601
   0.44649  0.56400  0.09406  1.25349  0.035222  0.001825 -0.000652    19.295
   0.46301  0.54760  0.09605  1.25352  0.032907  0.001828 -0.000653    18.001
   0.47954  0.53117  0.09790  1.25356  0.030592  0.001830 -0.000655    16.715
   0.49603  0.51477  0.09961  1.25363  0.028288  0.001832 -0.000657    15.443
   0.51242  0.49845  0.10115  1.25376  0.026031  0.001832 -0.000661    14.208
   0.52875  0.48218  0.10252  1.25397  0.023844  0.001831 -0.000666    13.023
   0.54509  0.46588  0.10371  1.25429  0.021723  0.001827 -0.000672    11.887
   0.56144  0.44957  0.10475  1.25477  0.019656  0.001822 -0.000682    10.790
   0.57774  0.43329  0.10561  1.25546  0.017671  0.001813 -0.000694     9.747
   0.59394  0.41711  0.10630  1.25643  0.015772  0.001801 -0.000712     8.758
   0.61007  0.40098  0.10679  1.25782  0.014010  0.001784 -0.000736     7.852
   0.62617  0.38489  0.10708  1.25974  0.012352  0.001763 -0.000769     7.008
   0.64227  0.36879  0.10718  1.26238  0.010830  0.001735 -0.000816     6.242
   0.65836  0.35270  0.10708  1.26597  0.009433  0.001701 -0.000868     5.546
   0.67432  0.33674  0.10680  1.27073  0.008173  0.001659 -0.000863     4.925
   0.69010  0.32097  0.10629  1.27685  0.007070  0.001611 -0.000679     4.389
   0.70583  0.30526  0.10554  1.28427  0.006172  0.001557 -0.000232     3.965
   0.72167  0.28945  0.10454  1.29309  0.005427  0.001496  0.000479     3.628
   0.73747  0.27369  0.10335  1.30340  0.004761  0.001428  0.001530     3.335
   0.75302  0.25820  0.10195  1.31449  0.004218  0.001356  0.002778     3.110
   0.76841  0.24291  0.10027  1.32502  0.003822  0.001288  0.003922     2.966
   0.78386  0.22758  0.09831  1.33454  0.003523  0.001225  0.004896     2.876
   0.79934  0.21226  0.09610  1.34355  0.003253  0.001163  0.005945     2.797
   0.81467  0.19713  0.09366  1.35151  0.003017  0.001104  0.007000     2.734
   0.82983  0.18221  0.09095  1.35802  0.002822  0.001049  0.007926     2.691
   0.84493  0.16741  0.08797  1.36318  0.002661  0.000997  0.008653     2.670
   0.85995  0.15275  0.08473  1.36807  0.002499  0.000944  0.009501     2.648
   0.87475  0.13836  0.08125  1.37240  0.002339  0.000891  0.010454     2.625
   0.88915  0.12444  0.07757  1.37635  0.002165  0.000837  0.011844     2.586
   0.90314  0.11101  0.07364  1.37769  0.002028  0.000788  0.012855     2.573
   0.91683  0.09797  0.06946  1.37755  0.001922  0.000741  0.013270     2.592
   0.92993  0.08560  0.06517  1.37978  0.001759  0.000687  0.015073     2.559
   0.94206  0.07425  0.06087  1.37980  0.001588  0.000635  0.017768     2.501
   0.95332  0.06387  0.05649  1.37326  0.001493  0.000594  0.018596     2.513
   0.96371  0.05444  0.05215  1.36734  0.001414  0.000554  0.018674     2.554
   0.97301  0.04611  0.04801  1.36592  0.001284  0.000507  0.021026     2.533
   0.98119  0.03891  0.04412  1.36217  0.001157  0.000463  0.024199     2.497
   0.98837  0.03273  0.04046  1.35383  0.001063  0.000426  0.026280     2.493
   0.99470  0.02743  0.03701  1.34444  0.000952  0.000390  0.030698     2.443
   1.00030  0.02288  0.03375  1.32762  0.000881  0.000361  0.032875     2.440
   1.00527  0.01898  0.03066  1.30947  0.000806  0.000333  0.036047     2.423
   1.00973  0.01561  0.02774  1.28728  0.000736  0.000307  0.039723     2.400
   1.01375  0.01272  0.02495  1.25916  0.000671  0.000283  0.043970     2.368
   1.01739  0.01024  0.02228  1.22412  0.000628  0.000264  0.045346     2.376
   1.02073  0.00811  0.01971  1.18626  0.000568  0.000244  0.050838     2.329
   1.02380  0.00630  0.01724  1.13628  0.000532  0.000229  0.052336     2.322
   1.02664  0.00476  0.01485  1.08113  0.000495  0.000215  0.054542     2.302
   1.02926  0.00350  0.01255  1.01994  0.000470  0.000203  0.053614     2.314
   1.03171  0.00246  0.01033  0.95073  0.000425  0.000191  0.059639     2.230
   1.03400  0.00163  0.00819  0.86757  0.000433  0.000188  0.050158     2.298
   1.03618  0.00098  0.00612  0.79271  0.000397  0.000177  0.052928     2.237
   1.03826  0.00048  0.00410  0.70791  0.000397  0.000172  0.044455     2.304
   1.04024  0.00015  0.00214  0.63405  0.000353  0.000152  0.043630     2.329
   1.04215  0.00001  0.00024  0.52514  0.000300  0.000136  0.047893     2.201
   1.04400  0.00012 -0.00161  0.38535  0.000310  0.000137  0.031874     2.271
   1.04587  0.00052 -0.00343  0.24283  0.000282  0.000127  0.023230     2.217
   1.04780  0.00123 -0.00524  0.08120  0.000308  0.000138  0.007039     2.230
   1.04986  0.00223 -0.00703 -0.07143  0.000308  0.000138  0.006193     2.230
   1.05205  0.00354 -0.00879 -0.20382  0.000358  0.000159  0.014791     2.257
   1.05438  0.00514 -0.01048 -0.31861  0.000380  0.000170  0.022332     2.232
   1.05689  0.00705 -0.01212 -0.40900  0.000446  0.000193  0.022846     2.305
   1.05960  0.00924 -0.01371 -0.48059  0.000492  0.000216  0.025037     2.274
   1.06254  0.01171 -0.01530 -0.54284  0.000547  0.000238  0.024817     2.300
   1.06576  0.01450 -0.01689 -0.59775  0.000594  0.000259  0.025244     2.296
   1.06931  0.01766 -0.01852 -0.64591  0.000654  0.000282  0.024291     2.317
   1.07328  0.02125 -0.02021 -0.68734  0.000720  0.000309  0.023184     2.331
   1.07773  0.02534 -0.02197 -0.73093  0.000757  0.000329  0.024127     2.301
   1.08275  0.03002 -0.02380 -0.76968  0.000833  0.000356  0.022294     2.338
   1.08845  0.03539 -0.02569 -0.80755  0.000887  0.000381  0.022243     2.325
   1.09493  0.04158 -0.02763 -0.84022  0.000978  0.000415  0.020290     2.360
   1.10237  0.04875 -0.02960 -0.87052  0.001059  0.000449  0.019398     2.360
   1.11095  0.05710 -0.03158 -0.89327  0.001193  0.000495  0.016831     2.410
   1.12083  0.06678 -0.03358 -0.91308  0.001310  0.000543  0.015613     2.413
   1.13204  0.07781 -0.03556 -0.93095  0.001436  0.000593  0.014429     2.420
   1.14448  0.09010 -0.03747 -0.94622  0.001571  0.000646  0.013249     2.431
   1.15809  0.10359 -0.03926 -0.95869  0.001717  0.000702  0.012105     2.445
   1.17266  0.11806 -0.04096 -0.96968  0.001853  0.000757  0.011309     2.448
   1.18781  0.13314 -0.04249 -0.98122  0.001957  0.000805  0.011016     2.432
   1.20335  0.14862 -0.04385 -0.99135  0.002077  0.000853  0.010453     2.436
   1.21923  0.16445 -0.04503 -0.99957  0.002207  0.000902  0.009802     2.447
   1.23540  0.18059 -0.04604 -1.00617  0.002339  0.000951  0.009195     2.459
   1.25175  0.19691 -0.04691 -1.01329  0.002432  0.000993  0.009003     2.449
   1.26813  0.21328 -0.04763 -1.01946  0.002539  0.001036  0.008653     2.451
   1.28457  0.22971 -0.04819 -1.02505  0.002642  0.001077  0.008344     2.453
   1.30115  0.24629 -0.04860 -1.02938  0.002762  0.001120  0.007917     2.465
   1.31783  0.26296 -0.04890 -1.03382  0.002857  0.001160  0.007694     2.464
   1.33448  0.27961 -0.04908 -1.03841  0.002938  0.001195  0.007566     2.458
   1.35110  0.29624 -0.04912 -1.04209  0.003039  0.001233  0.007293     2.464
   1.36778  0.31291 -0.04903 -1.04533  0.003139  0.001271  0.007040     2.470
   1.38450  0.32963 -0.04882 -1.04820  0.003237  0.001308  0.006806     2.475
   1.40120  0.34633 -0.04849 -1.05084  0.003331  0.001344  0.006605     2.479
   1.41786  0.36298 -0.04803 -1.05324  0.003422  0.001379  0.006423     2.482
   1.43449  0.37961 -0.04745 -1.05492  0.003530  0.001416  0.006165     2.493
   1.45114  0.39623 -0.04673 -1.05601  0.003645  0.001454  0.005889     2.507
   1.46777  0.41285 -0.04588 -1.05659  0.003767  0.001494  0.005609     2.522
   1.48439  0.42943 -0.04489 -1.05656  0.003898  0.001534  0.005309     2.541
   1.50097  0.44597 -0.04378 -1.05591  0.004043  0.001577  0.004989     2.564
   1.51751  0.46247 -0.04253 -1.05449  0.004208  0.001623  0.004627     2.594
   1.53401  0.47892 -0.04112 -1.05216  0.004405  0.001672  0.004208     2.634
   1.55050  0.49532 -0.03957 -1.04882  0.004645  0.001727  0.003722     2.690
   1.56702  0.51176 -0.03785 -1.04449  0.004938  0.001787  0.003180     2.763
   1.58368  0.52831 -0.03597 -1.03925  0.005299  0.001853  0.002592     2.859
   1.60055  0.54506 -0.03395 -1.03364  0.005704  0.001922  0.002042     2.968
   1.61761  0.56199 -0.03181 -1.02795  0.006141  0.001990  0.001557     3.085
   1.63483  0.57906 -0.02959 -1.02240  0.006597  0.002058  0.001151     3.206
   1.65218  0.59626 -0.02732 -1.01709  0.007071  0.002123  0.000813     3.330
   1.66962  0.61355 -0.02500 -1.01209  0.007542  0.002186  0.000548     3.450
   1.68712  0.63090 -0.02268 -1.00742  0.008005  0.002246  0.000343     3.563
   1.70462  0.64824 -0.02037 -1.00305  0.008454  0.002304  0.000187     3.669
   1.72205  0.66552 -0.01809 -0.99898  0.008879  0.002360  0.000072     3.763
   1.73939  0.68272 -0.01585 -0.99516  0.009285  0.002413 -0.000016     3.848
   1.75663  0.69982 -0.01367 -0.99158  0.009652  0.002464 -0.000075     3.917
   1.77378  0.71684 -0.01156 -0.98819  0.009972  0.002514 -0.000113     3.967
   1.79085  0.73379 -0.00953 -0.98498  0.010241  0.002562 -0.000131     3.997
   1.80784  0.75067 -0.00760 -0.98190  0.010458  0.002610 -0.000136     4.008
   1.82474  0.76746 -0.00576 -0.97896  0.010613  0.002656 -0.000125     3.996
   1.84154  0.78418 -0.00404 -0.97614  0.010702  0.002701 -0.000100     3.962
   1.85823  0.80079 -0.00245 -0.97344  0.010720  0.002745 -0.000058     3.905
   1.87481  0.81731 -0.00100 -0.97088  0.010659  0.002788  0.000007     3.824
   1.89126  0.83371  0.00030 -0.96849  0.010512  0.002828  0.000100     3.717
   1.90759  0.85000  0.00143 -0.96636  0.010279  0.002865  0.000230     3.588
   1.92381  0.86619  0.00238 -0.96462  0.009956  0.002896  0.000410     3.437
   1.93987  0.88223  0.00314 -0.96348  0.009556  0.002919  0.000649     3.273
   1.95573  0.89808  0.00370 -0.96328  0.009076  0.002929  0.000965     3.098
   1.97131  0.91366  0.00404 -0.96441  0.008524  0.002922  0.001375     2.918
   1.98653  0.92887  0.00415 -0.96752  0.007897  0.002890  0.001915     2.733
   2.00124  0.94358  0.00401 -0.97335  0.007207  0.002828  0.002622     2.549
   2.01526  0.95760  0.00361 -0.98286  0.006470  0.002730  0.003554     2.370
   2.02837  0.97069  0.00296 -0.99750  0.005686  0.002590  0.004824     2.196
   2.04040  0.98268  0.00205 -1.01941  0.004867  0.002401  0.006628     2.027
   2.05125  0.99348  0.00090 -1.05360  0.003986  0.002146  0.009494     1.858
   2.05783  1.00000  0.00000 -1.03989  0.004507  0.002285  0.007621     1.972
   2.05783  1.00010 -0.00002  1.03989  0.118610  0.019959  0.000000     5.943
   2.06446  1.00660 -0.00132  1.03663  0.114122  0.020451  0.000000     5.580
   2.07221  1.01425 -0.00258  1.03304  0.111974  0.020988  0.000000     5.335
   2.08127  1.02321 -0.00389  1.02875  0.109805  0.021626  0.000000     5.077
   2.09186  1.03371 -0.00526  1.02360  0.107486  0.022393  0.000000     4.800
   2.10423  1.04599 -0.00671  1.01734  0.104881  0.023325  0.000000     4.496
   2.11869  1.06038 -0.00823  1.00961  0.101896  0.024478  0.000000     4.163
   2.13560  1.07720 -0.00983  0.99985  0.098458  0.025942  0.000000     3.795
   2.15535  1.09689 -0.01148  0.98737  0.094520  0.027830  0.000000     3.396
   2.17845  1.11992 -0.01319  0.97523  0.089831  0.029684  0.000000     3.026
   2.20544  1.14686 -0.01493  0.96450  0.084383  0.031323  0.000000     2.694
   2.23698  1.17835 -0.01667  0.95545  0.078297  0.032693  0.000000     2.395
   2.27386  1.21519 -0.01836  0.94891  0.071757  0.033664  0.000000     2.132
   2.31695  1.25825 -0.01995  0.94552  0.065052  0.034152  0.000000     1.905
   2.36732  1.30860 -0.02137  0.94552  0.058541  0.034152  0.000000     1.714
   2.42619  1.36746 -0.02253  0.94860  0.052571  0.033751  0.000000     1.558
   2.49501  1.43627 -0.02331  0.95390  0.047391  0.033100  0.000000     1.432
   2.57543  1.51670 -0.02357  0.96031  0.043100  0.032359  0.000000     1.332
   2.66944  1.61070 -0.02313  0.96685  0.039663  0.031644  0.000000     1.253
   2.77931  1.72056 -0.02180  0.97289  0.036966  0.031015  0.000000     1.192
   2.90773  1.84896 -0.01930  0.97818  0.034877  0.030488  0.000000     1.144
   3.05782  1.99900 -0.01535  0.98675  0.032808  0.029668  0.000000     1.106
