#    s        x        y     Ue/Vinf    Dstar     Theta      Cf       H
   0.00000  1.00000  0.00000  1.01374  0.094503  0.013679 -0.000080     6.908
   0.00668  0.99360  0.00192  1.01571  0.091158  0.013447 -0.000082     6.779
   0.01807  0.98272  0.00530  1.01960  0.088205  0.013003 -0.000085     6.784
   0.03106  0.97032  0.00914  1.02433  0.085093  0.012485 -0.000089     6.816
   0.04516  0.95680  0.01317  1.02982  0.082023  0.011909 -0.000094     6.888
   0.06006  0.94246  0.01720  1.03604  0.079094  0.011284 -0.000099     7.009
   0.07565  0.92739  0.02118  1.04305  0.076328  0.010614 -0.000105     7.191
   0.09186  0.91167  0.02516  1.05089  0.073673  0.009899 -0.000112     7.442
   0.10852  0.89549  0.02915  1.05959  0.071071  0.009146 -0.000121     7.771
   0.12544  0.87905  0.03313  1.06917  0.068520  0.008362 -0.000132     8.195
   0.14250  0.86245  0.03708  1.07970  0.066016  0.007547 -0.000146     8.747
   0.15964  0.84577  0.04099  1.09132  0.063551  0.006702 -0.000164     9.483
   0.17681  0.82904  0.04484  1.10433  0.061103  0.005815 -0.000189    10.509
   0.19398  0.81229  0.04864  1.11930  0.058642  0.004864 -0.000225    12.057
   0.21115  0.79553  0.05238  1.13695  0.056125  0.003826 -0.000284    14.668
   0.22833  0.77875  0.05606  1.15945  0.053415  0.002609 -0.000296    20.473
   0.24546  0.76200  0.05967  1.17256  0.050978  0.001973 -0.000558    25.837
   0.26249  0.74535  0.06319  1.17262  0.048858  0.001974 -0.000559    24.757
   0.27941  0.72877  0.06660  1.17266  0.046624  0.001975 -0.000559    23.601
   0.29629  0.71222  0.06990  1.17267  0.044318  0.001978 -0.000559    22.401
   0.31313  0.69568  0.07308  1.17267  0.041964  0.001982 -0.000560    21.174
   0.32994  0.67915  0.07616  1.17266  0.039588  0.001986 -0.000560    19.939
   0.34670  0.66266  0.07911  1.17265  0.037200  0.001989 -0.000560    18.701
   0.36339  0.64620  0.08193  1.17265  0.034822  0.001993 -0.000561    17.476
   0.38005  0.62976  0.08462  1.17268  0.032478  0.001995 -0.000563    16.278
   0.39672  0.61329  0.08718  1.17273  0.030162  0.001997 -0.000565    15.104
   0.41338  0.59681  0.08962  1.17284  0.027884  0.001998 -0.000568    13.959
   0.42997  0.58038  0.09191  1.17300  0.025644  0.001997 -0.000572    12.843
   0.44649  0.56400  0.09406  1.17326  0.023485  0.001994 -0.000577    11.779
   0.46301  0.54760  0.09605  1.17365  0.021405  0.001989 -0.000584    10.764
   0.47954  0.53117  0.09790  1.17422  0.019400  0.001980 -0.000594     9.796
   0.49603  0.51477  0.09961  1.17500  0.017465  0.001969 -0.000607     8.871
   0.51242  0.49845  0.10115  1.17609  0.015638  0.001954 -0.000625     8.005
   0.52875  0.48218  0.10252  1.17759  0.013944  0.001933 -0.000650     7.212
   0.54509  0.46588  0.10371  1.17963  0.012370  0.001908 -0.000683     6.483
   0.56144  0.44957  0.10475  1.18234  0.010906  0.001877 -0.000726     5.811
   0.57774  0.43329  0.10561  1.18592  0.009581  0.001839 -0.000749     5.210
   0.59394  0.41711  0.10630  1.19052  0.008402  0.001794 -0.000696     4.682
   0.61007  0.40098  0.10679  1.19623  0.007365  0.001743 -0.000470     4.225
   0.62617  0.38489  0.10708  1.20292  0.006484  0.001687 -0.000019     3.844
   0.64227  0.36879  0.10718  1.21078  0.005751  0.001624  0.000628     3.541
   0.65836  0.35270  0.10708  1.21968  0.005126  0.001555  0.001459     3.296
   0.67432  0.33674  0.10680  1.22923  0.004587  0.001484  0.002464     3.092
   0.69010  0.32097  0.10629  1.23851  0.004159  0.001414  0.003491     2.942
   0.70583  0.30526  0.10554  1.24659  0.003847  0.001350  0.004339     2.850
   0.72167  0.28945  0.10454  1.25387  0.003583  0.001289  0.005146     2.780
   0.73747  0.27369  0.10335  1.26083  0.003320  0.001228  0.006152     2.704
   0.75302  0.25820  0.10195  1.26667  0.003076  0.001169  0.007281     2.631
   0.76841  0.24291  0.10027  1.26980  0.002905  0.001119  0.008057     2.595
   0.78386  0.22758  0.09831  1.27140  0.002763  0.001073  0.008683     2.575
   0.79934  0.21226  0.09610  1.27244  0.002614  0.001026  0.009460     2.548
   0.81467  0.19713  0.09366  1.27218  0.002475  0.000980  0.010240     2.526
   0.82983  0.18221  0.09095  1.27050  0.002347  0.000936  0.011001     2.507
   0.84493  0.16741  0.08797  1.26705  0.002241  0.000894  0.011507     2.506
   0.85995  0.15275  0.08473  1.26322  0.002129  0.000851  0.012129     2.502
   0.87475  0.13836  0.08125  1.25899  0.002000  0.000805  0.013096     2.485
   0.88915  0.12444  0.07757  1.25308  0.001868  0.000759  0.014285     2.463
   0.90314  0.11101  0.07364  1.24426  0.001755  0.000715  0.015270     2.452
   0.91683  0.09797  0.06946  1.23310  0.001667  0.000674  0.015613     2.472
   0.92993  0.08560  0.06517  1.22331  0.001544  0.000627  0.016882     2.462
   0.94206  0.07425  0.06087  1.21157  0.001379  0.000577  0.020176     2.389
   0.95332  0.06387  0.05649  1.18896  0.001316  0.000545  0.020206     2.415
   0.96371  0.05444  0.05215  1.16926  0.001232  0.000507  0.020888     2.431
   0.97301  0.04611  0.04801  1.15075  0.001130  0.000466  0.022562     2.424
   0.98119  0.03891  0.04412  1.13013  0.001028  0.000427  0.024810     2.406
   0.98837  0.03273  0.04046  1.10523  0.000934  0.000392  0.027392     2.381
   0.99470  0.02743  0.03701  1.07550  0.000865  0.000363  0.028704     2.383
   1.00030  0.02288  0.03375  1.04375  0.000783  0.000333  0.031727     2.352
   1.00527  0.01898  0.03066  1.00494  0.000725  0.000309  0.033165     2.347
   1.00973  0.01561  0.02774  0.96266  0.000666  0.000286  0.035105     2.331
   1.01375  0.01272  0.02495  0.91381  0.000612  0.000265  0.037092     2.307
   1.01739  0.01024  0.02228  0.85829  0.000574  0.000249  0.037113     2.308
   1.02073  0.00811  0.01971  0.79952  0.000531  0.000231  0.037620     2.300
   1.02380  0.00630  0.01724  0.73311  0.000490  0.000215  0.038127     2.281
   1.02664  0.00476  0.01485  0.65657  0.000457  0.000202  0.037151     2.263
   1.02926  0.00350  0.01255  0.57445  0.000434  0.000191  0.033882     2.275
   1.03171  0.00246  0.01033  0.48521  0.000401  0.000179  0.032051     2.238
   1.03400  0.00163  0.00819  0.38313  0.000397  0.000179  0.026195     2.210
   1.03618  0.00098  0.00612  0.29103  0.000392  0.000170  0.018506     2.304
   1.03826  0.00048  0.00410  0.18734  0.000321  0.000144  0.015599     2.225
   1.04024  0.00015  0.00214  0.05518  0.000332  0.000149  0.004428     2.230
   1.04215  0.00001  0.00024 -0.06611  0.000332  0.000149  0.005312     2.230
   1.04400  0.00012 -0.00161 -0.22631  0.000264  0.000120  0.023450     2.202
   1.04587  0.00052 -0.00343 -0.37818  0.000307  0.000133  0.030752     2.303
   1.04780  0.00123 -0.00524 -0.51036  0.000313  0.000142  0.044193     2.210
   1.04986  0.00223 -0.00703 -0.64151  0.000335  0.000148  0.049334     2.268
   1.05205  0.00354 -0.00879 -0.74344  0.000375  0.000163  0.049821     2.295
   1.05438  0.00514 -0.01048 -0.81294  0.000438  0.000187  0.044266     2.349
   1.05689  0.00705 -0.01212 -0.86966  0.000482  0.000207  0.043948     2.327
   1.05960  0.00924 -0.01371 -0.90262  0.000579  0.000238  0.034353     2.429
   1.06254  0.01171 -0.01530 -0.93228  0.000625  0.000263  0.034672     2.376
   1.06576  0.01450 -0.01689 -0.96094  0.000683  0.000287  0.032558     2.381
   1.06931  0.01766 -0.01852 -0.98250  0.000761  0.000315  0.028819     2.416
   1.07328  0.02125 -0.02021 -1.00312  0.000822  0.000342  0.027538     2.406
   1.07773  0.02534 -0.02197 -1.02404  0.000883  0.000368  0.026369     2.399
   1.08275  0.03002 -0.02380 -1.04542  0.000943  0.000394  0.025362     2.393
   1.08845  0.03539 -0.02569 -1.06428  0.001022  0.000424  0.023395     2.410
   1.09493  0.04158 -0.02763 -1.08026  0.001113  0.000458  0.021397     2.429
   1.10237  0.04875 -0.02960 -1.09372  0.001214  0.000496  0.019512     2.446
   1.11095  0.05710 -0.03158 -1.10053  0.001366  0.000546  0.016452     2.503
   1.12083  0.06678 -0.03358 -1.10432  0.001516  0.000600  0.014465     2.528
   1.13204  0.07781 -0.03556 -1.10829  0.001649  0.000653  0.013412     2.524
   1.14448  0.09010 -0.03747 -1.10977  0.001817  0.000713  0.011856     2.549
   1.15809  0.10359 -0.03926 -1.11012  0.001984  0.000774  0.010701     2.563
   1.17266  0.11806 -0.04096 -1.11049  0.002137  0.000834  0.009929     2.563
   1.18781  0.13314 -0.04249 -1.11264  0.002251  0.000886  0.009694     2.540
   1.20335  0.14862 -0.04385 -1.11380  0.002396  0.000941  0.009053     2.546
   1.21923  0.16445 -0.04503 -1.11469  0.002533  0.000993  0.008533     2.550
   1.23540  0.18059 -0.04604 -1.11467  0.002684  0.001047  0.007938     2.563
   1.25175  0.19691 -0.04691 -1.11564  0.002793  0.001094  0.007726     2.552
   1.26813  0.21328 -0.04763 -1.11654  0.002906  0.001140  0.007463     2.549
   1.28457  0.22971 -0.04819 -1.11677  0.003035  0.001187  0.007086     2.556
   1.30115  0.24629 -0.04860 -1.11678  0.003160  0.001233  0.006755     2.563
   1.31783  0.26296 -0.04890 -1.11672  0.003279  0.001278  0.006480     2.567
   1.33448  0.27961 -0.04908 -1.11701  0.003380  0.001319  0.006316     2.563
   1.35110  0.29624 -0.04912 -1.11680  0.003497  0.001361  0.006061     2.569
   1.36778  0.31291 -0.04903 -1.11638  0.003615  0.001403  0.005814     2.577
   1.38450  0.32963 -0.04882 -1.11565  0.003739  0.001446  0.005556     2.586
   1.40120  0.34633 -0.04849 -1.11478  0.003860  0.001487  0.005323     2.595
   1.41786  0.36298 -0.04803 -1.11354  0.003991  0.001530  0.005066     2.609
   1.43449  0.37961 -0.04745 -1.11179  0.004138  0.001574  0.004768     2.628
   1.45114  0.39623 -0.04673 -1.10956  0.004298  0.001620  0.004449     2.653
   1.46777  0.41285 -0.04588 -1.10656  0.004491  0.001670  0.004062     2.690
   1.48439  0.42943 -0.04489 -1.10322  0.004693  0.001720  0.003696     2.728
   1.50097  0.44597 -0.04378 -1.09911  0.004939  0.001775  0.003264     2.782
   1.51751  0.46247 -0.04253 -1.09444  0.005223  0.001833  0.002807     2.850
   1.53401  0.47892 -0.04112 -1.08906  0.005578  0.001895  0.002285     2.943
   1.55050  0.49532 -0.03957 -1.08317  0.006021  0.001962  0.001720     3.069
   1.56702  0.51176 -0.03785 -1.07709  0.006565  0.002030  0.001150     3.234
   1.58368  0.52831 -0.03597 -1.07119  0.007227  0.002096  0.000610     3.447
   1.60055  0.54506 -0.03395 -1.06587  0.007993  0.002158  0.000163     3.703
   1.61761  0.56199 -0.03181 -1.06122  0.008829  0.002214 -0.000155     3.988
   1.63483  0.57906 -0.02959 -1.05712  0.009729  0.002265 -0.000357     4.295
   1.65218  0.59626 -0.02732 -1.05344  0.010663  0.002314 -0.000461     4.609
   1.66962  0.61355 -0.02500 -1.05021  0.011618  0.002358 -0.000502     4.927
   1.68712  0.63090 -0.02268 -1.04740  0.012573  0.002399 -0.000508     5.240
   1.70462  0.64824 -0.02037 -1.04493  0.013511  0.002437 -0.000500     5.543
   1.72205  0.66552 -0.01809 -1.04275  0.014414  0.002473 -0.000486     5.828
   1.73939  0.68272 -0.01585 -1.04079  0.015285  0.002506 -0.000470     6.098
   1.75663  0.69982 -0.01367 -1.03901  0.016091  0.002538 -0.000456     6.339
   1.77378  0.71684 -0.01156 -1.03736  0.016827  0.002569 -0.000445     6.550
   1.79085  0.73379 -0.00953 -1.03580  0.017482  0.002599 -0.000435     6.726
   1.80784  0.75067 -0.00760 -1.03431  0.018048  0.002629 -0.000426     6.866
   1.82474  0.76746 -0.00576 -1.03286  0.018517  0.002658 -0.000419     6.965
   1.84154  0.78418 -0.00404 -1.03143  0.018874  0.002688 -0.000413     7.020
   1.85823  0.80079 -0.00245 -1.03000  0.019110  0.002719 -0.000407     7.028
   1.87481  0.81731 -0.00100 -1.02856  0.019216  0.002750 -0.000403     6.987
   1.89126  0.83371  0.00030 -1.02709  0.019174  0.002783 -0.000399     6.891
   1.90759  0.85000  0.00143 -1.02557  0.018978  0.002816 -0.000397     6.740
   1.92381  0.86619  0.00238 -1.02399  0.018619  0.002851 -0.000396     6.531
   1.93987  0.88223  0.00314 -1.02233  0.018095  0.002887 -0.000396     6.268
   1.95573  0.89808  0.00370 -1.02059  0.017399  0.002924 -0.000399     5.951
   1.97131  0.91366  0.00404 -1.01876  0.016529  0.002962 -0.000401     5.581
   1.98653  0.92887  0.00415 -1.01687  0.015479  0.003000 -0.000393     5.160
   2.00124  0.94358  0.00401 -1.01498  0.014263  0.003036 -0.000353     4.698
   2.01526  0.95760  0.00361 -1.01322  0.012915  0.003068 -0.000220     4.209
   2.02837  0.97069  0.00296 -1.01188  0.011477  0.003092  0.000101     3.712
   2.04040  0.98268  0.00205 -1.01256  0.010015  0.003083  0.000688     3.249
   2.05125  0.99348  0.00090 -1.01714  0.008622  0.003019  0.001567     2.856
   2.05783  1.00000  0.00000 -1.01374  0.009254  0.003074  0.001155     3.011
   2.05783  1.00010 -0.00002  1.01374  0.103757  0.016753  0.000000     6.193
   2.06446  1.00660 -0.00133  1.00981  0.098053  0.017277  0.000000     5.675
   2.07221  1.01424 -0.00262  1.00545  0.095192  0.017847  0.000000     5.334
   2.08127  1.02319 -0.00398  1.00019  0.092308  0.018530  0.000000     4.981
   2.09186  1.03368 -0.00543  0.99375  0.089260  0.019361  0.000000     4.610
   2.10423  1.04596 -0.00698  0.98574  0.085906  0.020392  0.000000     4.213
   2.11869  1.06032 -0.00865  0.97548  0.082171  0.021713  0.000000     3.784
   2.13560  1.07713 -0.01044  0.96262  0.077992  0.023375  0.000000     3.336
   2.15535  1.09680 -0.01235  0.95139  0.073120  0.024829  0.000000     2.945
   2.17845  1.11980 -0.01439  0.94164  0.067663  0.026078  0.000000     2.595
   2.20544  1.14670 -0.01656  0.93429  0.061751  0.027002  0.000000     2.287
   2.23698  1.17816 -0.01884  0.93019  0.055616  0.027499  0.000000     2.022
   2.27386  1.21496 -0.02123  0.92992  0.049576  0.027531  0.000000     1.801
   2.31695  1.25798 -0.02372  0.93340  0.043973  0.027152  0.000000     1.620
   2.36732  1.30829 -0.02627  0.93985  0.039080  0.026497  0.000000     1.475
   2.42619  1.36710 -0.02884  0.94797  0.035029  0.025729  0.000000     1.361
   2.49501  1.43587 -0.03141  0.95647  0.031808  0.024978  0.000000     1.273
   2.57543  1.51626 -0.03389  0.96443  0.029310  0.024317  0.000000     1.205
   2.66944  1.61023 -0.03622  0.97140  0.027401  0.023767  0.000000     1.153
   2.77931  1.72008 -0.03831  0.97727  0.025957  0.023322  0.000000     1.113
   2.90773  1.84849 -0.04004  0.98210  0.024874  0.022969  0.000000     1.083
   3.05782  1.99858 -0.04129  0.98809  0.023905  0.022544  0.000000     1.060
