#    s        x        y     Ue/Vinf    Dstar     Theta      Cf       H
   0.00000  1.00000  0.00000  1.00671  0.084178  0.010942 -0.000096     7.693
   0.00668  0.99360  0.00192  1.00918  0.080564  0.010687 -0.000100     7.539
   0.01807  0.98272  0.00530  1.01415  0.077729  0.010196 -0.000105     7.623
   0.03106  0.97032  0.00914  1.02024  0.074816  0.009622 -0.000111     7.776
   0.04516  0.95680  0.01317  1.02740  0.071997  0.008979 -0.000119     8.018
   0.06006  0.94246  0.01720  1.03563  0.069346  0.008278 -0.000129     8.377
   0.07565  0.92739  0.02118  1.04503  0.066867  0.007521 -0.000141     8.891
   0.09186  0.91167  0.02516  1.05578  0.064494  0.006704 -0.000158     9.620
   0.10852  0.89549  0.02915  1.06817  0.062142  0.005819 -0.000182    10.679
   0.12544  0.87905  0.03313  1.08258  0.059779  0.004858 -0.000218    12.305
   0.14250  0.86245  0.03708  1.09976  0.057348  0.003795 -0.000266    15.110
   0.15964  0.84577  0.04099  1.12200  0.054709  0.002525 -0.000277    21.668
   0.17681  0.82904  0.04484  1.13071  0.052528  0.002077 -0.000512    25.286
   0.19398  0.81229  0.04864  1.13079  0.050517  0.002077 -0.000513    24.326
   0.21115  0.79553  0.05238  1.13084  0.048372  0.002078 -0.000513    23.283
   0.22833  0.77875  0.05606  1.13087  0.046122  0.002080 -0.000513    22.177
   0.24546  0.76200  0.05967  1.13088  0.043789  0.002083 -0.000514    21.024
   0.26249  0.74535  0.06319  1.13088  0.041416  0.002086 -0.000514    19.850
   0.27941  0.72877  0.06660  1.13087  0.039035  0.002090 -0.000514    18.676
   0.29629  0.71222  0.06990  1.13087  0.036661  0.002094 -0.000515    17.511
   0.31313  0.69568  0.07308  1.13088  0.034298  0.002096 -0.000516    16.360
   0.32994  0.67915  0.07616  1.13092  0.031965  0.002099 -0.000518    15.231
   0.34670  0.66266  0.07911  1.13099  0.029664  0.002100 -0.000520    14.127
   0.36339  0.64620  0.08193  1.13112  0.027411  0.002100 -0.000523    13.056
   0.38005  0.62976  0.08462  1.13132  0.025227  0.002097 -0.000528    12.028
   0.39672  0.61329  0.08718  1.13164  0.023114  0.002093 -0.000534    11.043
   0.41338  0.59681  0.08962  1.13208  0.021064  0.002086 -0.000542    10.097
   0.42997  0.58038  0.09191  1.13271  0.019094  0.002076 -0.000552     9.196
   0.44649  0.56400  0.09406  1.13358  0.017229  0.002063 -0.000566     8.352
   0.46301  0.54760  0.09605  1.13476  0.015470  0.002045 -0.000584     7.565
   0.47954  0.53117  0.09790  1.13637  0.013825  0.002023 -0.000610     6.836
   0.49603  0.51477  0.09961  1.13848  0.012276  0.001995 -0.000644     6.154
   0.51242  0.49845  0.10115  1.14125  0.010864  0.001961 -0.000679     5.539
   0.52875  0.48218  0.10252  1.14485  0.009605  0.001921 -0.000680     5.000
   0.54509  0.46588  0.10371  1.14939  0.008487  0.001874 -0.000592     4.528
   0.56144  0.44957  0.10475  1.15488  0.007495  0.001822 -0.000339     4.115
   0.57774  0.43329  0.10561  1.16125  0.006641  0.001764  0.000108     3.765
   0.59394  0.41711  0.10630  1.16866  0.005906  0.001700  0.000747     3.475
   0.61007  0.40098  0.10679  1.17678  0.005316  0.001631  0.001472     3.259
   0.62617  0.38489  0.10708  1.18525  0.004824  0.001561  0.002269     3.090
   0.64227  0.36879  0.10718  1.19351  0.004424  0.001493  0.003062     2.963
   0.65836  0.35270  0.10708  1.20135  0.004083  0.001427  0.003874     2.862
   0.67432  0.33674  0.10680  1.20872  0.003770  0.001362  0.004790     2.768
   0.69010  0.32097  0.10629  1.21485  0.003510  0.001302  0.005666     2.696
   0.70583  0.30526  0.10554  1.21919  0.003315  0.001249  0.006333     2.654
   0.72167  0.28945  0.10454  1.22245  0.003147  0.001199  0.006916     2.626
   0.73747  0.27369  0.10335  1.22550  0.002962  0.001146  0.007726     2.584
   0.75302  0.25820  0.10195  1.22771  0.002770  0.001095  0.008783     2.531
   0.76841  0.24291  0.10027  1.22700  0.002631  0.001051  0.009511     2.504
   0.78386  0.22758  0.09831  1.22412  0.002530  0.001012  0.009904     2.501
   0.79934  0.21226  0.09610  1.22123  0.002407  0.000969  0.010580     2.483
   0.81467  0.19713  0.09366  1.21706  0.002285  0.000927  0.011321     2.465
   0.82983  0.18221  0.09095  1.21115  0.002173  0.000887  0.012033     2.450
   0.84493  0.16741  0.08797  1.20306  0.002087  0.000850  0.012359     2.456
   0.85995  0.15275  0.08473  1.19515  0.001974  0.000807  0.013135     2.445
   0.87475  0.13836  0.08125  1.18531  0.001869  0.000766  0.013815     2.441
   0.88915  0.12444  0.07757  1.17442  0.001744  0.000722  0.015052     2.416
   0.90314  0.11101  0.07364  1.15953  0.001638  0.000681  0.016020     2.404
   0.91683  0.09797  0.06946  1.14157  0.001562  0.000644  0.016154     2.427
   0.92993  0.08560  0.06517  1.12514  0.001454  0.000599  0.017098     2.427
   0.94206  0.07425  0.06087  1.10645  0.001292  0.000550  0.020405     2.351
   0.95332  0.06387  0.05649  1.07540  0.001235  0.000520  0.020249     2.376
   0.96371  0.05444  0.05215  1.04711  0.001154  0.000484  0.020877     2.386
   0.97301  0.04611  0.04801  1.01920  0.001063  0.000445  0.022058     2.387
   0.98119  0.03891  0.04412  0.98884  0.000958  0.000407  0.024526     2.353
   0.98837  0.03273  0.04046  0.95172  0.000885  0.000377  0.025659     2.349
   0.99470  0.02743  0.03701  0.91180  0.000810  0.000348  0.027310     2.332
   1.00030  0.02288  0.03375  0.86676  0.000748  0.000322  0.028406     2.321
   1.00527  0.01898  0.03066  0.81865  0.000695  0.000299  0.028721     2.327
   1.00973  0.01561  0.02774  0.76758  0.000633  0.000274  0.030088     2.308
   1.01375  0.01272  0.02495  0.70601  0.000577  0.000255  0.031621     2.265
   1.01739  0.01024  0.02228  0.63929  0.000556  0.000239  0.028175     2.321
   1.02073  0.00811  0.01971  0.56891  0.000487  0.000218  0.030989     2.236
   1.02380  0.00630  0.01724  0.48143  0.000479  0.000212  0.025904     2.266
   1.02664  0.00476  0.01485  0.39517  0.000448  0.000201  0.023523     2.230
   1.02926  0.00350  0.01255  0.30758  0.000428  0.000186  0.018025     2.297
   1.03171  0.00246  0.01033  0.20727  0.000367  0.000166  0.015249     2.215
   1.03400  0.00163  0.00819  0.09261  0.000394  0.000177  0.006262     2.230
   1.03618  0.00098  0.00612 -0.00564  0.000394  0.000177  0.000386     2.230
   1.03826  0.00048  0.00410 -0.13236  0.000312  0.000140  0.011288     2.229
   1.04024  0.00015  0.00214 -0.27508  0.000312  0.000140  0.023399     2.235
   1.04215  0.00001  0.00024 -0.42119  0.000300  0.000135  0.037955     2.214
   1.04400  0.00012 -0.00161 -0.59165  0.000275  0.000125  0.058974     2.201
   1.04587  0.00052 -0.00343 -0.73898  0.000302  0.000132  0.061687     2.289
   1.04780  0.00123 -0.00524 -0.87098  0.000311  0.000139  0.074121     2.240
   1.04986  0.00223 -0.00703 -0.98061  0.000350  0.000151  0.069051     2.314
   1.05205  0.00354 -0.00879 -1.05504  0.000400  0.000170  0.063106     2.347
   1.05438  0.00514 -0.01048 -1.10780  0.000455  0.000192  0.056696     2.374
   1.05689  0.00705 -0.01212 -1.14075  0.000527  0.000217  0.047932     2.425
   1.05960  0.00924 -0.01371 -1.15400  0.000624  0.000249  0.037696     2.504
   1.06254  0.01171 -0.01530 -1.16539  0.000689  0.000277  0.035320     2.482
   1.06576  0.01450 -0.01689 -1.17509  0.000762  0.000306  0.031936     2.490
   1.06931  0.01766 -0.01852 -1.18322  0.000836  0.000335  0.029115     2.496
   1.07328  0.02125 -0.02021 -1.19006  0.000914  0.000365  0.026604     2.502
   1.07773  0.02534 -0.02197 -1.19864  0.000978  0.000394  0.025562     2.483
   1.08275  0.03002 -0.02380 -1.20819  0.001045  0.000423  0.024398     2.472
   1.08845  0.03539 -0.02569 -1.21471  0.001141  0.000457  0.021860     2.498
   1.09493  0.04158 -0.02763 -1.22086  0.001231  0.000492  0.020285     2.501
   1.10237  0.04875 -0.02960 -1.22263  0.001363  0.000536  0.017506     2.544
   1.11095  0.05710 -0.03158 -1.22107  0.001514  0.000586  0.015055     2.585
   1.12083  0.06678 -0.03358 -1.21607  0.001693  0.000643  0.012688     2.632
   1.13204  0.07781 -0.03556 -1.21062  0.001861  0.000703  0.011290     2.647
   1.14448  0.09010 -0.03747 -1.20431  0.002043  0.000766  0.009989     2.667
   1.15809  0.10359 -0.03926 -1.19747  0.002234  0.000832  0.008875     2.686
   1.17266  0.11806 -0.04096 -1.19121  0.002411  0.000896  0.008145     2.690
   1.18781  0.13314 -0.04249 -1.18730  0.002538  0.000954  0.007991     2.661
   1.20335  0.14862 -0.04385 -1.18319  0.002696  0.001012  0.007476     2.663
   1.21923  0.16445 -0.04503 -1.17938  0.002849  0.001069  0.007036     2.665
   1.23540  0.18059 -0.04604 -1.17519  0.003019  0.001127  0.006510     2.678
   1.25175  0.19691 -0.04691 -1.17210  0.003147  0.001179  0.006297     2.669
   1.26813  0.21328 -0.04763 -1.16922  0.003280  0.001230  0.006048     2.666
   1.28457  0.22971 -0.04819 -1.16648  0.003412  0.001279  0.005799     2.666
   1.30115  0.24629 -0.04860 -1.16328  0.003565  0.001331  0.005447     2.680
   1.31783  0.26296 -0.04890 -1.16013  0.003713  0.001381  0.005151     2.690
   1.33448  0.27961 -0.04908 -1.15746  0.003838  0.001427  0.004975     2.689
   1.35110  0.29624 -0.04912 -1.15472  0.003971  0.001473  0.004766     2.695
   1.36778  0.31291 -0.04903 -1.15122  0.004143  0.001524  0.004418     2.719
   1.38450  0.32963 -0.04882 -1.14794  0.004297  0.001572  0.004169     2.734
   1.40120  0.34633 -0.04849 -1.14420  0.004478  0.001622  0.003855     2.761
   1.41786  0.36298 -0.04803 -1.14029  0.004665  0.001672  0.003553     2.789
   1.43449  0.37961 -0.04745 -1.13578  0.004894  0.001726  0.003174     2.835
   1.45114  0.39623 -0.04673 -1.13092  0.005150  0.001782  0.002781     2.889
   1.46777  0.41285 -0.04588 -1.12545  0.005468  0.001842  0.002319     2.968
   1.48439  0.42943 -0.04489 -1.11969  0.005838  0.001904  0.001845     3.066
   1.50097  0.44597 -0.04378 -1.11376  0.006277  0.001967  0.001360     3.190
   1.51751  0.46247 -0.04253 -1.10783  0.006809  0.002031  0.000869     3.353
   1.53401  0.47892 -0.04112 -1.10222  0.007455  0.002092  0.000404     3.563
   1.55050  0.49532 -0.03957 -1.09718  0.008235  0.002149 -0.000000     3.832
   1.56702  0.51176 -0.03785 -1.09283  0.009169  0.002200 -0.000304     4.168
   1.58368  0.52831 -0.03597 -1.08901  0.010250  0.002246 -0.000478     4.563
   1.60055  0.54506 -0.03395 -1.08578  0.011449  0.002288 -0.000542     5.003
   1.61761  0.56199 -0.03181 -1.08314  0.012738  0.002325 -0.000543     5.478
   1.63483  0.57906 -0.02959 -1.08098  0.014092  0.002357 -0.000523     5.978
   1.65218  0.59626 -0.02732 -1.07922  0.015483  0.002385 -0.000500     6.491
   1.66962  0.61355 -0.02500 -1.07775  0.016884  0.002410 -0.000481     7.005
   1.68712  0.63090 -0.02268 -1.07650  0.018268  0.002433 -0.000467     7.509
   1.70462  0.64824 -0.02037 -1.07542  0.019622  0.002453 -0.000456     7.999
   1.72205  0.66552 -0.01809 -1.07446  0.020923  0.002472 -0.000446     8.463
   1.73939  0.68272 -0.01585 -1.07360  0.022166  0.002490 -0.000439     8.902
   1.75663  0.69982 -0.01367 -1.07280  0.023323  0.002508 -0.000432     9.301
   1.77378  0.71684 -0.01156 -1.07204  0.024388  0.002525 -0.000426     9.659
   1.79085  0.73379 -0.00953 -1.07130  0.025349  0.002542 -0.000421     9.970
   1.80784  0.75067 -0.00760 -1.07056  0.026196  0.002560 -0.000417    10.231
   1.82474  0.76746 -0.00576 -1.06983  0.026920  0.002579 -0.000412    10.438
   1.84154  0.78418 -0.00404 -1.06908  0.027510  0.002599 -0.000408    10.586
   1.85823  0.80079 -0.00245 -1.06831  0.027953  0.002620 -0.000404    10.671
   1.87481  0.81731 -0.00100 -1.06750  0.028237  0.002642 -0.000400    10.689
   1.89126  0.83371  0.00030 -1.06665  0.028347  0.002666 -0.000397    10.634
   1.90759  0.85000  0.00143 -1.06575  0.028274  0.002691 -0.000393    10.505
   1.92381  0.86619  0.00238 -1.06478  0.028003  0.002719 -0.000390    10.298
   1.93987  0.88223  0.00314 -1.06373  0.027535  0.002749 -0.000387    10.016
   1.95573  0.89808  0.00370 -1.06260  0.026855  0.002781 -0.000384     9.656
   1.97131  0.91366  0.00404 -1.06137  0.025957  0.002816 -0.000381     9.219
   1.98653  0.92887  0.00415 -1.06003  0.024830  0.002852 -0.000380     8.705
   2.00124  0.94358  0.00401 -1.05858  0.023479  0.002891 -0.000379     8.122
   2.01526  0.95760  0.00361 -1.05702  0.021924  0.002930 -0.000381     7.481
   2.02837  0.97069  0.00296 -1.05061  0.020260  0.003094 -0.000240     6.549
   2.04040  0.98268  0.00205 -1.03311  0.018649  0.003532 -0.000215     5.280
   2.05125  0.99348  0.00090 -1.01566  0.017140  0.003965 -0.000129     4.323
   2.05783  1.00000  0.00000 -1.00671  0.018000  0.004192 -0.000123     4.294
   2.05783  1.00010 -0.00002  1.00671  0.102178  0.015134  0.000000     6.752
   2.06446  1.00660 -0.00134  1.00153  0.095341  0.015803  0.000000     6.033
   2.07221  1.01423 -0.00265  0.99567  0.091891  0.016543  0.000000     5.555
   2.08127  1.02318 -0.00404  0.98856  0.088427  0.017432  0.000000     5.073
   2.09186  1.03367 -0.00553  0.97981  0.084792  0.018522  0.000000     4.578
   2.10423  1.04593 -0.00715  0.96877  0.080834  0.019897  0.000000     4.063
   2.11869  1.06029 -0.00890  0.95440  0.076496  0.021697  0.000000     3.526
   2.13560  1.07708 -0.01080  0.94003  0.071533  0.023507  0.000000     3.043
   2.15535  1.09673 -0.01287  0.92808  0.065901  0.025009  0.000000     2.635
   2.17845  1.11972 -0.01511  0.91907  0.059769  0.026121  0.000000     2.288
   2.20544  1.14660 -0.01753  0.91410  0.053387  0.026714  0.000000     1.998
   2.23698  1.17804 -0.02015  0.91390  0.047108  0.026738  0.000000     1.762
   2.27386  1.21480 -0.02296  0.91840  0.041316  0.026259  0.000000     1.573
   2.31695  1.25779 -0.02598  0.92663  0.036318  0.025453  0.000000     1.427
   2.36732  1.30806 -0.02921  0.93690  0.032255  0.024525  0.000000     1.315
   2.42619  1.36683 -0.03264  0.94752  0.029094  0.023637  0.000000     1.231
   2.49501  1.43554 -0.03627  0.95737  0.026702  0.022868  0.000000     1.168
   2.57543  1.51588 -0.04010  0.96593  0.024920  0.022237  0.000000     1.121
   2.66944  1.60980 -0.04410  0.97309  0.023605  0.021733  0.000000     1.086
   2.77931  1.71959 -0.04825  0.97894  0.022643  0.021336  0.000000     1.061
   2.90773  1.84794 -0.05254  0.98365  0.021941  0.021026  0.000000     1.044
   3.05782  1.99797 -0.05692  0.98866  0.021347  0.020705  0.000000     1.031
