#    s        x        y     Ue/Vinf    Dstar     Theta      Cf       H
   0.00000  1.00000  0.00000  1.04970  0.123683  0.019073 -0.000061     6.485
   0.00668  0.99360  0.00192  1.05100  0.120579  0.018876 -0.000062     6.388
   0.01807  0.98272  0.00530  1.05350  0.117303  0.018505 -0.000063     6.339
   0.03106  0.97032  0.00914  1.05647  0.113714  0.018077 -0.000065     6.291
   0.04516  0.95680  0.01317  1.05987  0.110048  0.017603 -0.000067     6.252
   0.06006  0.94246  0.01720  1.06367  0.106439  0.017092 -0.000070     6.227
   0.07565  0.92739  0.02118  1.06787  0.102925  0.016548 -0.000072     6.220
   0.09186  0.91167  0.02516  1.07248  0.099468  0.015972 -0.000075     6.228
   0.10852  0.89549  0.02915  1.07750  0.096028  0.015371 -0.000079     6.247
   0.12544  0.87905  0.03313  1.08288  0.092619  0.014751 -0.000082     6.279
   0.14250  0.86245  0.03708  1.08865  0.089253  0.014116 -0.000086     6.323
   0.15964  0.84577  0.04099  1.09480  0.085938  0.013467 -0.000090     6.381
   0.17681  0.82904  0.04484  1.10137  0.082678  0.012806 -0.000095     6.456
   0.19398  0.81229  0.04864  1.10840  0.079478  0.012133 -0.000101     6.550
   0.21115  0.79553  0.05238  1.11593  0.076341  0.011447 -0.000107     6.669
   0.22833  0.77875  0.05606  1.12404  0.073259  0.010746 -0.000114     6.818
   0.24546  0.76200  0.05967  1.13276  0.070231  0.010032 -0.000122     7.001
   0.26249  0.74535  0.06319  1.14215  0.067284  0.009305 -0.000131     7.231
   0.27941  0.72877  0.06660  1.15232  0.064431  0.008564 -0.000142     7.524
   0.29629  0.71222  0.06990  1.16341  0.061669  0.007804 -0.000155     7.902
   0.31313  0.69568  0.07308  1.17558  0.058990  0.007022 -0.000172     8.400
   0.32994  0.67915  0.07616  1.18907  0.056387  0.006214 -0.000194     9.074
   0.34670  0.66266  0.07911  1.20420  0.053843  0.005371 -0.000224    10.025
   0.36339  0.64620  0.08193  1.22170  0.051333  0.004470 -0.000269    11.484
   0.38005  0.62976  0.08462  1.24245  0.048826  0.003489 -0.000339    13.995
   0.39672  0.61329  0.08718  1.26923  0.046181  0.002333 -0.000354    19.792
   0.41338  0.59681  0.08962  1.28428  0.043828  0.001757 -0.000688    24.950
   0.42997  0.58038  0.09191  1.28438  0.041751  0.001757 -0.000689    23.768
   0.44649  0.56400  0.09406  1.28445  0.039573  0.001758 -0.000689    22.512
   0.46301  0.54760  0.09605  1.28450  0.037340  0.001760 -0.000690    21.220
   0.47954  0.53117  0.09790  1.28454  0.035055  0.001762 -0.000691    19.895
   0.49603  0.51477  0.09961  1.28457  0.032746  0.001764 -0.000692    18.560
   0.51242  0.49845  0.10115  1.28462  0.030447  0.001766 -0.000694    17.236
   0.52875  0.48218  0.10252  1.28470  0.028177  0.001768 -0.000696    15.938
   0.54509  0.46588  0.10371  1.28484  0.025956  0.001768 -0.000700    14.682
   0.56144  0.44957  0.10475  1.28505  0.023752  0.001767 -0.000705    13.443
   0.57774  0.43329  0.10561  1.28536  0.021606  0.001764 -0.000712    12.248
   0.59394  0.41711  0.10630  1.28582  0.019523  0.001759 -0.000721    11.099
   0.61007  0.40098  0.10679  1.28650  0.017546  0.001751 -0.000734    10.022
   0.62617  0.38489  0.10708  1.28749  0.015658  0.001739 -0.000752     9.004
   0.64227  0.36879  0.10718  1.28888  0.013875  0.001723 -0.000776     8.053
   0.65836  0.35270  0.10708  1.29083  0.012200  0.001702 -0.000811     7.168
   0.67432  0.33674  0.10680  1.29349  0.010629  0.001675 -0.000860     6.344
   0.69010  0.32097  0.10629  1.29714  0.009225  0.001642 -0.000919     5.617
   0.70583  0.30526  0.10554  1.30207  0.008005  0.001602 -0.000927     4.998
   0.72167  0.28945  0.10454  1.30853  0.006953  0.001553 -0.000782     4.477
   0.73747  0.27369  0.10335  1.31645  0.005998  0.001498 -0.000308     4.003
   0.75302  0.25820  0.10195  1.32584  0.005193  0.001438  0.000558     3.612
   0.76841  0.24291  0.10027  1.33655  0.004582  0.001371  0.001604     3.342
   0.78386  0.22758  0.09831  1.34781  0.004123  0.001303  0.002637     3.164
   0.79934  0.21226  0.09610  1.35937  0.003726  0.001235  0.003801     3.018
   0.81467  0.19713  0.09366  1.37042  0.003397  0.001168  0.004978     2.908
   0.82983  0.18221  0.09095  1.38048  0.003128  0.001106  0.006083     2.829
   0.84493  0.16741  0.08797  1.38912  0.002924  0.001048  0.006898     2.790
   0.85995  0.15275  0.08473  1.39768  0.002721  0.000990  0.007870     2.749
   0.87475  0.13836  0.08125  1.40567  0.002529  0.000932  0.008917     2.713
   0.88915  0.12444  0.07757  1.41339  0.002326  0.000874  0.010383     2.661
   0.90314  0.11101  0.07364  1.41850  0.002177  0.000822  0.011302     2.648
   0.91683  0.09797  0.06946  1.42300  0.002047  0.000771  0.011945     2.656
   0.92993  0.08560  0.06517  1.42933  0.001868  0.000714  0.013778     2.616
   0.94206  0.07425  0.06087  1.43373  0.001690  0.000660  0.016275     2.560
   0.95332  0.06387  0.05649  1.43269  0.001590  0.000617  0.016932     2.579
   0.96371  0.05444  0.05215  1.43318  0.001490  0.000572  0.017573     2.604
   0.97301  0.04611  0.04801  1.43633  0.001360  0.000525  0.019539     2.593
   0.98119  0.03891  0.04412  1.43884  0.001222  0.000479  0.022825     2.551
   0.98837  0.03273  0.04046  1.43708  0.001113  0.000439  0.025543     2.533
   0.99470  0.02743  0.03701  1.43320  0.001004  0.000402  0.029415     2.495
   1.00030  0.02288  0.03375  1.42431  0.000913  0.000370  0.033126     2.466
   1.00527  0.01898  0.03066  1.41098  0.000841  0.000342  0.035989     2.456
   1.00973  0.01561  0.02774  1.39543  0.000770  0.000316  0.039647     2.437
   1.01375  0.01272  0.02495  1.37569  0.000703  0.000291  0.043962     2.412
   1.01739  0.01024  0.02228  1.34943  0.000636  0.000269  0.049818     2.366
   1.02073  0.00811  0.01971  1.31334  0.000598  0.000252  0.051436     2.370
   1.02380  0.00630  0.01724  1.27499  0.000549  0.000234  0.055708     2.344
   1.02664  0.00476  0.01485  1.22741  0.000507  0.000219  0.059798     2.313
   1.02926  0.00350  0.01255  1.17027  0.000479  0.000208  0.061100     2.301
   1.03171  0.00246  0.01033  1.10738  0.000452  0.000198  0.062335     2.283
   1.03400  0.00163  0.00819  1.03755  0.000431  0.000190  0.061738     2.272
   1.03618  0.00098  0.00612  0.96515  0.000418  0.000182  0.058146     2.292
   1.03826  0.00048  0.00410  0.89495  0.000395  0.000171  0.056259     2.308
   1.04024  0.00015  0.00214  0.81927  0.000360  0.000156  0.057084     2.298
   1.04215  0.00001  0.00024  0.72786  0.000324  0.000142  0.056482     2.293
   1.04400  0.00012 -0.00161  0.60662  0.000290  0.000130  0.055256     2.239
   1.04587  0.00052 -0.00343  0.45038  0.000286  0.000128  0.042213     2.225
   1.04780  0.00123 -0.00524  0.28467  0.000296  0.000134  0.025972     2.215
   1.04986  0.00223 -0.00703  0.12664  0.000318  0.000142  0.010630     2.230
   1.05205  0.00354 -0.00879 -0.02587  0.000318  0.000142  0.002173     2.230
   1.05438  0.00514 -0.01048 -0.14293  0.000409  0.000181  0.009094     2.257
   1.05689  0.00705 -0.01212 -0.24960  0.000403  0.000183  0.016832     2.208
   1.05960  0.00924 -0.01371 -0.33669  0.000481  0.000208  0.017239     2.315
   1.06254  0.01171 -0.01530 -0.40657  0.000521  0.000231  0.020415     2.252
   1.06576  0.01450 -0.01689 -0.47138  0.000575  0.000251  0.020730     2.288
   1.06931  0.01766 -0.01852 -0.52822  0.000625  0.000273  0.021364     2.288
   1.07328  0.02125 -0.02021 -0.57995  0.000682  0.000297  0.021231     2.301
   1.07773  0.02534 -0.02197 -0.62904  0.000734  0.000319  0.021476     2.298
   1.08275  0.03002 -0.02380 -0.67426  0.000799  0.000345  0.020814     2.315
   1.08845  0.03539 -0.02569 -0.71716  0.000860  0.000371  0.020561     2.315
   1.09493  0.04158 -0.02763 -0.75733  0.000933  0.000401  0.019767     2.328
   1.10237  0.04875 -0.02960 -0.79200  0.001029  0.000437  0.018281     2.354
   1.11095  0.05710 -0.03158 -0.82099  0.001142  0.000481  0.016700     2.376
   1.12083  0.06678 -0.03358 -0.84596  0.001263  0.000528  0.015354     2.390
   1.13204  0.07781 -0.03556 -0.86940  0.001375  0.000576  0.014523     2.388
   1.14448  0.09010 -0.03747 -0.88916  0.001511  0.000628  0.013269     2.406
   1.15809  0.10359 -0.03926 -0.90549  0.001653  0.000683  0.012187     2.420
   1.17266  0.11806 -0.04096 -0.92064  0.001776  0.000735  0.011577     2.416
   1.18781  0.13314 -0.04249 -0.93527  0.001884  0.000782  0.011178     2.408
   1.20335  0.14862 -0.04385 -0.94803  0.002002  0.000829  0.010603     2.414
   1.21923  0.16445 -0.04503 -0.95924  0.002117  0.000875  0.010094     2.419
   1.23540  0.18059 -0.04604 -0.96798  0.002251  0.000924  0.009415     2.436
   1.25175  0.19691 -0.04691 -0.97696  0.002344  0.000966  0.009208     2.427
   1.26813  0.21328 -0.04763 -0.98518  0.002442  0.001007  0.008926     2.426
   1.28457  0.22971 -0.04819 -0.99234  0.002546  0.001047  0.008578     2.431
   1.30115  0.24629 -0.04860 -0.99826  0.002659  0.001089  0.008169     2.442
   1.31783  0.26296 -0.04890 -1.00428  0.002748  0.001127  0.007978     2.439
   1.33448  0.27961 -0.04908 -1.01011  0.002830  0.001162  0.007820     2.435
   1.35110  0.29624 -0.04912 -1.01528  0.002920  0.001198  0.007596     2.438
   1.36778  0.31291 -0.04903 -1.01964  0.003020  0.001235  0.007314     2.446
   1.38450  0.32963 -0.04882 -1.02373  0.003112  0.001270  0.007101     2.450
   1.40120  0.34633 -0.04849 -1.02759  0.003198  0.001304  0.006923     2.452
   1.41786  0.36298 -0.04803 -1.03103  0.003286  0.001338  0.006731     2.455
   1.43449  0.37961 -0.04745 -1.03361  0.003392  0.001375  0.006458     2.467
   1.45114  0.39623 -0.04673 -1.03596  0.003489  0.001410  0.006244     2.475
   1.46777  0.41285 -0.04588 -1.03735  0.003609  0.001448  0.005934     2.492
   1.48439  0.42943 -0.04489 -1.03847  0.003722  0.001486  0.005685     2.505
   1.50097  0.44597 -0.04378 -1.03875  0.003855  0.001527  0.005370     2.525
   1.51751  0.46247 -0.04253 -1.03832  0.004002  0.001570  0.005032     2.550
   1.53401  0.47892 -0.04112 -1.03694  0.004176  0.001616  0.004636     2.584
   1.55050  0.49532 -0.03957 -1.03455  0.004385  0.001668  0.004180     2.629
   1.56702  0.51176 -0.03785 -1.03093  0.004648  0.001725  0.003638     2.694
   1.58368  0.52831 -0.03597 -1.02636  0.004962  0.001789  0.003065     2.774
   1.60055  0.54506 -0.03395 -1.02125  0.005313  0.001855  0.002522     2.864
   1.61761  0.56199 -0.03181 -1.01593  0.005686  0.001922  0.002044     2.958
   1.63483  0.57906 -0.02959 -1.01059  0.006074  0.001989  0.001633     3.054
   1.65218  0.59626 -0.02732 -1.00538  0.006465  0.002055  0.001295     3.147
   1.66962  0.61355 -0.02500 -1.00038  0.006854  0.002119  0.001021     3.235
   1.68712  0.63090 -0.02268 -0.99563  0.007230  0.002181  0.000806     3.315
   1.70462  0.64824 -0.02037 -0.99113  0.007588  0.002241  0.000639     3.386
   1.72205  0.66552 -0.01809 -0.98690  0.007925  0.002298  0.000511     3.448
   1.73939  0.68272 -0.01585 -0.98290  0.008244  0.002354  0.000411     3.502
   1.75663  0.69982 -0.01367 -0.97914  0.008530  0.002408  0.000341     3.542
   1.77378  0.71684 -0.01156 -0.97559  0.008776  0.002460  0.000297     3.568
   1.79085  0.73379 -0.00953 -0.97225  0.008977  0.002510  0.000279     3.577
   1.80784  0.75067 -0.00760 -0.96909  0.009137  0.002558  0.000279     3.571
   1.82474  0.76746 -0.00576 -0.96613  0.009248  0.002605  0.000301     3.550
   1.84154  0.78418 -0.00404 -0.96337  0.009305  0.002650  0.000344     3.512
   1.85823  0.80079 -0.00245 -0.96084  0.009305  0.002691  0.000412     3.457
   1.87481  0.81731 -0.00100 -0.95859  0.009243  0.002730  0.000509     3.386
   1.89126  0.83371  0.00030 -0.95670  0.009113  0.002764  0.000641     3.297
   1.90759  0.85000  0.00143 -0.95530  0.008914  0.002792  0.000817     3.193
   1.92381  0.86619  0.00238 -0.95455  0.008644  0.002812  0.001046     3.075
   1.93987  0.88223  0.00314 -0.95466  0.008314  0.002820  0.001334     2.948
   1.95573  0.89808  0.00370 -0.95592  0.007922  0.002815  0.001696     2.814
   1.97131  0.91366  0.00404 -0.95872  0.007473  0.002793  0.002151     2.676
   1.98653  0.92887  0.00415 -0.96367  0.006957  0.002747  0.002738     2.532
   2.00124  0.94358  0.00401 -0.97146  0.006385  0.002674  0.003498     2.387
   2.01526  0.95760  0.00361 -0.98300  0.005766  0.002570  0.004493     2.243
   2.02837  0.97069  0.00296 -0.99987  0.005094  0.002427  0.005862     2.099
   2.04040  0.98268  0.00205 -1.02445  0.004376  0.002239  0.007836     1.954
   2.05125  0.99348  0.00090 -1.06305  0.003574  0.001984  0.011110     1.801
   2.05783  1.00000  0.00000 -1.04970  0.004034  0.002113  0.009010     1.909
   2.05783  1.00010 -0.00002  1.04970  0.127717  0.021186  0.000000     6.028
   2.06446  1.00660 -0.00132  1.04672  0.123561  0.021666  0.000000     5.703
   2.07221  1.01425 -0.00257  1.04342  0.121611  0.022191  0.000000     5.480
   2.08127  1.02321 -0.00386  1.03952  0.119645  0.022812  0.000000     5.245
   2.09186  1.03371 -0.00520  1.03484  0.117536  0.023555  0.000000     4.990
   2.10423  1.04601 -0.00661  1.02921  0.115152  0.024453  0.000000     4.709
   2.11869  1.06040 -0.00807  1.02233  0.112395  0.025551  0.000000     4.399
   2.13560  1.07723 -0.00959  1.01381  0.109176  0.026918  0.000000     4.056
   2.15535  1.09693 -0.01115  1.00297  0.105431  0.028669  0.000000     3.677
   2.17845  1.11996 -0.01274  0.98941  0.101093  0.030888  0.000000     3.273
   2.20544  1.14691 -0.01431  0.97737  0.095849  0.032875  0.000000     2.916
   2.23698  1.17842 -0.01584  0.96661  0.089813  0.034652  0.000000     2.592
   2.27386  1.21526 -0.01726  0.95784  0.083118  0.036085  0.000000     2.303
   2.31695  1.25834 -0.01851  0.95183  0.076007  0.037045  0.000000     2.052
   2.36732  1.30870 -0.01950  0.94912  0.068828  0.037465  0.000000     1.837
   2.42619  1.36757 -0.02012  0.94975  0.061976  0.037371  0.000000     1.658
   2.49501  1.43638 -0.02022  0.95321  0.055802  0.036887  0.000000     1.513
   2.57543  1.51681 -0.01964  0.95853  0.050526  0.036185  0.000000     1.396
   2.66944  1.61080 -0.01816  0.96463  0.046201  0.035424  0.000000     1.304
   2.77931  1.72064 -0.01552  0.97066  0.042756  0.034710  0.000000     1.232
   2.90773  1.84899 -0.01143  0.97617  0.040053  0.034087  0.000000     1.175
   3.05782  1.99897 -0.00551  0.98626  0.037253  0.033000  0.000000     1.129
