#    s        x        y     Ue/Vinf    Dstar     Theta      Cf       H
   0.00000  1.00000  0.00000  1.01093  0.090754  0.013606 -0.000081     6.670
   0.00668  0.99360  0.00192  1.01302  0.087407  0.013368 -0.000083     6.539
   0.01807  0.98272  0.00530  1.01715  0.084518  0.012910 -0.000087     6.546
   0.03106  0.97032  0.00914  1.02219  0.081488  0.012377 -0.000091     6.584
   0.04516  0.95680  0.01317  1.02805  0.078516  0.011782 -0.000095     6.664
   0.06006  0.94246  0.01720  1.03473  0.075696  0.011135 -0.000101     6.798
   0.07565  0.92739  0.02118  1.04226  0.073047  0.010440 -0.000108     6.997
   0.09186  0.91167  0.02516  1.05072  0.070517  0.009697 -0.000115     7.272
   0.10852  0.89549  0.02915  1.06015  0.068044  0.008913 -0.000125     7.634
   0.12544  0.87905  0.03313  1.07058  0.065625  0.008093 -0.000137     8.109
   0.14250  0.86245  0.03708  1.08211  0.063249  0.007239 -0.000153     8.737
   0.15964  0.84577  0.04099  1.09494  0.060907  0.006348 -0.000173     9.595
   0.17681  0.82904  0.04484  1.10958  0.058565  0.005398 -0.000203    10.850
   0.19398  0.81229  0.04864  1.12664  0.056187  0.004371 -0.000251    12.855
   0.21115  0.79553  0.05238  1.14759  0.053688  0.003210 -0.000290    16.727
   0.22833  0.77875  0.05606  1.17169  0.051030  0.001998 -0.000551    25.534
   0.24546  0.76200  0.05967  1.17179  0.049073  0.001997 -0.000552    24.572
   0.26249  0.74535  0.06319  1.17185  0.046951  0.001998 -0.000553    23.500
   0.27941  0.72877  0.06660  1.17188  0.044736  0.002000 -0.000553    22.369
   0.29629  0.71222  0.06990  1.17190  0.042464  0.002003 -0.000553    21.205
   0.31313  0.69568  0.07308  1.17191  0.040155  0.002006 -0.000554    20.021
   0.32994  0.67915  0.07616  1.17192  0.037829  0.002009 -0.000554    18.832
   0.34670  0.66266  0.07911  1.17193  0.035497  0.002012 -0.000555    17.644
   0.36339  0.64620  0.08193  1.17195  0.033180  0.002014 -0.000557    16.472
   0.38005  0.62976  0.08462  1.17201  0.030897  0.002016 -0.000558    15.325
   0.39672  0.61329  0.08718  1.17210  0.028649  0.002017 -0.000561    14.206
   0.41338  0.59681  0.08962  1.17226  0.026438  0.002016 -0.000565    13.114
   0.42997  0.58038  0.09191  1.17249  0.024271  0.002014 -0.000570    12.054
   0.44649  0.56400  0.09406  1.17284  0.022192  0.002009 -0.000576    11.047
   0.46301  0.54760  0.09605  1.17334  0.020182  0.002002 -0.000585    10.083
   0.47954  0.53117  0.09790  1.17405  0.018261  0.001991 -0.000597     9.171
   0.49603  0.51477  0.09961  1.17501  0.016404  0.001977 -0.000613     8.296
   0.51242  0.49845  0.10115  1.17633  0.014669  0.001959 -0.000634     7.488
   0.52875  0.48218  0.10252  1.17812  0.013055  0.001936 -0.000663     6.743
   0.54509  0.46588  0.10371  1.18051  0.011580  0.001907 -0.000702     6.071
   0.56144  0.44957  0.10475  1.18366  0.010208  0.001872 -0.000737     5.452
   0.57774  0.43329  0.10561  1.18775  0.008969  0.001831 -0.000728     4.899
   0.59394  0.41711  0.10630  1.19291  0.007881  0.001783 -0.000592     4.421
   0.61007  0.40098  0.10679  1.19905  0.006932  0.001729 -0.000252     4.009
   0.62617  0.38489  0.10708  1.20623  0.006135  0.001670  0.000300     3.674
   0.64227  0.36879  0.10718  1.21452  0.005467  0.001604  0.001026     3.408
   0.65836  0.35270  0.10708  1.22356  0.004911  0.001535  0.001874     3.200
   0.67432  0.33674  0.10680  1.23300  0.004423  0.001463  0.002883     3.022
   0.69010  0.32097  0.10629  1.24189  0.004035  0.001395  0.003883     2.892
   0.70583  0.30526  0.10554  1.24962  0.003737  0.001332  0.004763     2.805
   0.72167  0.28945  0.10454  1.25583  0.003521  0.001276  0.005391     2.760
   0.73747  0.27369  0.10335  1.26260  0.003257  0.001215  0.006458     2.682
   0.75302  0.25820  0.10195  1.26779  0.003030  0.001158  0.007534     2.616
   0.76841  0.24291  0.10027  1.27060  0.002856  0.001109  0.008379     2.576
   0.78386  0.22758  0.09831  1.27123  0.002732  0.001065  0.008877     2.565
   0.79934  0.21226  0.09610  1.27177  0.002589  0.001019  0.009612     2.542
   0.81467  0.19713  0.09366  1.27131  0.002447  0.000973  0.010469     2.515
   0.82983  0.18221  0.09095  1.26890  0.002327  0.000930  0.011150     2.502
   0.84493  0.16741  0.08797  1.26498  0.002225  0.000889  0.011613     2.503
   0.85995  0.15275  0.08473  1.26108  0.002104  0.000845  0.012407     2.490
   0.87475  0.13836  0.08125  1.25569  0.001990  0.000801  0.013136     2.485
   0.88915  0.12444  0.07757  1.24979  0.001850  0.000754  0.014512     2.455
   0.90314  0.11101  0.07364  1.24003  0.001741  0.000712  0.015433     2.446
   0.91683  0.09797  0.06946  1.22807  0.001661  0.000672  0.015583     2.473
   0.92993  0.08560  0.06517  1.21834  0.001528  0.000623  0.017165     2.452
   0.94206  0.07425  0.06087  1.20518  0.001377  0.000575  0.020008     2.393
   0.95332  0.06387  0.05649  1.18285  0.001297  0.000541  0.020747     2.398
   0.96371  0.05444  0.05215  1.16071  0.001235  0.000506  0.020518     2.439
   0.97301  0.04611  0.04801  1.14303  0.001121  0.000464  0.022735     2.418
   0.98119  0.03891  0.04412  1.12125  0.001022  0.000425  0.024821     2.403
   0.98837  0.03273  0.04046  1.09568  0.000930  0.000391  0.027279     2.380
   0.99470  0.02743  0.03701  1.06512  0.000854  0.000361  0.029206     2.369
   1.00030  0.02288  0.03375  1.03086  0.000784  0.000333  0.031233     2.354
   1.00527  0.01898  0.03066  0.99226  0.000723  0.000308  0.032913     2.345
   1.00973  0.01561  0.02774  0.94918  0.000663  0.000285  0.034912     2.327
   1.01375  0.01272  0.02495  0.89996  0.000613  0.000265  0.036116     2.317
   1.01739  0.01024  0.02228  0.84427  0.000564  0.000246  0.037763     2.290
   1.02073  0.00811  0.01971  0.78317  0.000536  0.000231  0.035857     2.320
   1.02380  0.00630  0.01724  0.71644  0.000478  0.000213  0.039364     2.248
   1.02664  0.00476  0.01485  0.63407  0.000467  0.000206  0.034910     2.270
   1.02926  0.00350  0.01255  0.55764  0.000438  0.000191  0.032001     2.295
   1.03171  0.00246  0.01033  0.46879  0.000392  0.000176  0.032104     2.222
   1.03400  0.00163  0.00819  0.36256  0.000401  0.000181  0.024483     2.212
   1.03618  0.00098  0.00612  0.27236  0.000390  0.000169  0.017295     2.308
   1.03826  0.00048  0.00410  0.16582  0.000313  0.000140  0.014198     2.225
   1.04024  0.00015  0.00214  0.02787  0.000329  0.000147  0.002259     2.230
   1.04215  0.00001  0.00024 -0.09612  0.000328  0.000147  0.007807     2.230
   1.04400  0.00012 -0.00161 -0.24148  0.000287  0.000130  0.022914     2.206
   1.04587  0.00052 -0.00343 -0.40703  0.000281  0.000126  0.038278     2.238
   1.04780  0.00123 -0.00524 -0.53968  0.000324  0.000141  0.041947     2.293
   1.04986  0.00223 -0.00703 -0.65945  0.000337  0.000151  0.051791     2.237
   1.05205  0.00354 -0.00879 -0.76268  0.000378  0.000164  0.050404     2.301
   1.05438  0.00514 -0.01048 -0.83851  0.000425  0.000183  0.048382     2.320
   1.05689  0.00705 -0.01212 -0.88614  0.000504  0.000211  0.040257     2.392
   1.05960  0.00924 -0.01371 -0.92096  0.000566  0.000237  0.037458     2.386
   1.06254  0.01171 -0.01530 -0.94932  0.000633  0.000264  0.034025     2.400
   1.06576  0.01450 -0.01689 -0.97498  0.000692  0.000289  0.032185     2.394
   1.06931  0.01766 -0.01852 -0.99668  0.000762  0.000316  0.029394     2.411
   1.07328  0.02125 -0.02021 -1.01719  0.000824  0.000342  0.027829     2.407
   1.07773  0.02534 -0.02197 -1.03645  0.000892  0.000370  0.026109     2.411
   1.08275  0.03002 -0.02380 -1.05647  0.000952  0.000396  0.025194     2.401
   1.08845  0.03539 -0.02569 -1.07462  0.001029  0.000426  0.023390     2.413
   1.09493  0.04158 -0.02763 -1.08958  0.001123  0.000461  0.021249     2.436
   1.10237  0.04875 -0.02960 -1.10182  0.001227  0.000500  0.019273     2.455
   1.11095  0.05710 -0.03158 -1.10829  0.001374  0.000549  0.016438     2.504
   1.12083  0.06678 -0.03358 -1.11151  0.001528  0.000603  0.014365     2.534
   1.13204  0.07781 -0.03556 -1.11486  0.001662  0.000657  0.013293     2.530
   1.14448  0.09010 -0.03747 -1.11583  0.001831  0.000717  0.011755     2.555
   1.15809  0.10359 -0.03926 -1.11497  0.002010  0.000780  0.010420     2.578
   1.17266  0.11806 -0.04096 -1.11520  0.002152  0.000838  0.009858     2.567
   1.18781  0.13314 -0.04249 -1.11685  0.002271  0.000892  0.009570     2.547
   1.20335  0.14862 -0.04385 -1.11769  0.002415  0.000946  0.008956     2.552
   1.21923  0.16445 -0.04503 -1.11829  0.002553  0.000999  0.008442     2.556
   1.23540  0.18059 -0.04604 -1.11764  0.002713  0.001054  0.007776     2.574
   1.25175  0.19691 -0.04691 -1.11826  0.002822  0.001102  0.007588     2.561
   1.26813  0.21328 -0.04763 -1.11869  0.002939  0.001148  0.007306     2.559
   1.28457  0.22971 -0.04819 -1.11861  0.003068  0.001196  0.006947     2.566
   1.30115  0.24629 -0.04860 -1.11850  0.003189  0.001241  0.006658     2.569
   1.31783  0.26296 -0.04890 -1.11799  0.003318  0.001287  0.006335     2.578
   1.33448  0.27961 -0.04908 -1.11812  0.003415  0.001328  0.006201     2.571
   1.35110  0.29624 -0.04912 -1.11761  0.003537  0.001371  0.005933     2.579
   1.36778  0.31291 -0.04903 -1.11667  0.003668  0.001415  0.005637     2.591
   1.38450  0.32963 -0.04882 -1.11571  0.003791  0.001458  0.005399     2.600
   1.40120  0.34633 -0.04849 -1.11457  0.003915  0.001501  0.005169     2.609
   1.41786  0.36298 -0.04803 -1.11294  0.004055  0.001545  0.004889     2.625
   1.43449  0.37961 -0.04745 -1.11086  0.004208  0.001590  0.004585     2.646
   1.45114  0.39623 -0.04673 -1.10823  0.004381  0.001638  0.004246     2.675
   1.46777  0.41285 -0.04588 -1.10491  0.004584  0.001689  0.003855     2.714
   1.48439  0.42943 -0.04489 -1.10114  0.004805  0.001741  0.003462     2.760
   1.50097  0.44597 -0.04378 -1.09672  0.005067  0.001798  0.003025     2.819
   1.51751  0.46247 -0.04253 -1.09172  0.005377  0.001857  0.002551     2.895
   1.53401  0.47892 -0.04112 -1.08605  0.005770  0.001922  0.002010     3.002
   1.55050  0.49532 -0.03957 -1.08004  0.006253  0.001989  0.001447     3.144
   1.56702  0.51176 -0.03785 -1.07400  0.006848  0.002057  0.000887     3.330
   1.58368  0.52831 -0.03597 -1.06833  0.007574  0.002121  0.000374     3.570
   1.60055  0.54506 -0.03395 -1.06333  0.008399  0.002180 -0.000023     3.853
   1.61761  0.56199 -0.03181 -1.05900  0.009311  0.002233 -0.000291     4.169
   1.63483  0.57906 -0.02959 -1.05513  0.010286  0.002283 -0.000439     4.506
   1.65218  0.59626 -0.02732 -1.05176  0.011299  0.002328 -0.000502     4.853
   1.66962  0.61355 -0.02500 -1.04886  0.012341  0.002370 -0.000514     5.208
   1.68712  0.63090 -0.02268 -1.04635  0.013376  0.002408 -0.000507     5.555
   1.70462  0.64824 -0.02037 -1.04417  0.014394  0.002443 -0.000490     5.892
   1.72205  0.66552 -0.01809 -1.04225  0.015382  0.002476 -0.000473     6.214
   1.73939  0.68272 -0.01585 -1.04054  0.016332  0.002506 -0.000458     6.517
   1.75663  0.69982 -0.01367 -1.03898  0.017219  0.002535 -0.000446     6.792
   1.77378  0.71684 -0.01156 -1.03753  0.018032  0.002563 -0.000435     7.035
   1.79085  0.73379 -0.00953 -1.03617  0.018761  0.002591 -0.000426     7.242
   1.80784  0.75067 -0.00760 -1.03486  0.019401  0.002618 -0.000419     7.410
   1.82474  0.76746 -0.00576 -1.03359  0.019940  0.002645 -0.000412     7.537
   1.84154  0.78418 -0.00404 -1.03233  0.020364  0.002673 -0.000406     7.618
   1.85823  0.80079 -0.00245 -1.03108  0.020665  0.002702 -0.000401     7.649
   1.87481  0.81731 -0.00100 -1.02981  0.020833  0.002731 -0.000396     7.629
   1.89126  0.83371  0.00030 -1.02850  0.020850  0.002761 -0.000393     7.551
   1.90759  0.85000  0.00143 -1.02715  0.020710  0.002793 -0.000389     7.416
   1.92381  0.86619  0.00238 -1.02573  0.020401  0.002826 -0.000387     7.219
   1.93987  0.88223  0.00314 -1.02424  0.019924  0.002860 -0.000386     6.965
   1.95573  0.89808  0.00370 -1.02267  0.019270  0.002897 -0.000387     6.653
   1.97131  0.91366  0.00404 -1.02101  0.018436  0.002934 -0.000389     6.284
   1.98653  0.92887  0.00415 -1.01926  0.017413  0.002972 -0.000394     5.860
   2.00124  0.94358  0.00401 -1.01744  0.016218  0.003010 -0.000394     5.389
   2.01526  0.95760  0.00361 -1.01563  0.014879  0.003046 -0.000373     4.886
   2.02837  0.97069  0.00296 -1.01395  0.013439  0.003077 -0.000276     4.368
   2.04040  0.98268  0.00205 -1.01257  0.011969  0.003102 -0.000020     3.859
   2.05125  0.99348  0.00090 -1.01249  0.010576  0.003104  0.000443     3.407
   2.05783  1.00000  0.00000 -1.01093  0.011232  0.003132  0.000222     3.587
   2.05783  1.00010 -0.00002  1.01093  0.101987  0.016738  0.000000     6.093
   2.06446  1.00660 -0.00133  1.00671  0.096162  0.017295  0.000000     5.560
   2.07221  1.01424 -0.00263  1.00200  0.093235  0.017904  0.000000     5.207
   2.08127  1.02319 -0.00399  0.99630  0.090286  0.018636  0.000000     4.845
   2.09186  1.03368 -0.00544  0.98930  0.087171  0.019531  0.000000     4.463
   2.10423  1.04595 -0.00700  0.98053  0.083754  0.020651  0.000000     4.056
   2.11869  1.06032 -0.00868  0.96922  0.079969  0.022097  0.000000     3.619
   2.13560  1.07713 -0.01049  0.95660  0.075672  0.023718  0.000000     3.190
   2.15535  1.09679 -0.01242  0.94581  0.070713  0.025104  0.000000     2.817
   2.17845  1.11979 -0.01449  0.93671  0.065212  0.026257  0.000000     2.484
   2.20544  1.14669 -0.01669  0.93027  0.059318  0.027056  0.000000     2.192
   2.23698  1.17815 -0.01902  0.92727  0.053279  0.027413  0.000000     1.944
   2.27386  1.21494 -0.02147  0.92815  0.047418  0.027313  0.000000     1.736
   2.31695  1.25796 -0.02403  0.93267  0.042060  0.026833  0.000000     1.567
   2.36732  1.30826 -0.02667  0.93988  0.037441  0.026120  0.000000     1.433
   2.42619  1.36707 -0.02936  0.94843  0.033659  0.025332  0.000000     1.329
   2.49501  1.43583 -0.03206  0.95709  0.030672  0.024586  0.000000     1.248
   2.57543  1.51621 -0.03473  0.96505  0.028367  0.023940  0.000000     1.185
   2.66944  1.61018 -0.03729  0.97197  0.026611  0.023407  0.000000     1.137
   2.77931  1.72003 -0.03966  0.97776  0.025287  0.022976  0.000000     1.101
   2.90773  1.84843 -0.04174  0.98251  0.024298  0.022635  0.000000     1.073
   3.05782  1.99851 -0.04340  0.98824  0.023422  0.022236  0.000000     1.053
