#    s        x        y     Ue/Vinf    Dstar     Theta      Cf       H
   0.00000  1.00000  0.00000  1.01780  0.082132  0.012332 -0.000090     6.660
   0.00668  0.99360  0.00192  1.02018  0.078805  0.012087 -0.000093     6.520
   0.01807  0.98272  0.00530  1.02493  0.076123  0.011617 -0.000097     6.552
   0.03106  0.97032  0.00914  1.03074  0.073351  0.011067 -0.000102     6.628
   0.04516  0.95680  0.01317  1.03755  0.070671  0.010453 -0.000108     6.761
   0.06006  0.94246  0.01720  1.04532  0.068162  0.009785 -0.000115     6.966
   0.07565  0.92739  0.02118  1.05413  0.065834  0.009065 -0.000124     7.262
   0.09186  0.91167  0.02516  1.06408  0.063628  0.008295 -0.000135     7.671
   0.10852  0.89549  0.02915  1.07524  0.061474  0.007478 -0.000149     8.221
   0.12544  0.87905  0.03313  1.08770  0.059355  0.006620 -0.000167     8.966
   0.14250  0.86245  0.03708  1.10178  0.057250  0.005712 -0.000193    10.023
   0.15964  0.84577  0.04099  1.11803  0.055122  0.004735 -0.000232    11.642
   0.17681  0.82904  0.04484  1.13734  0.052911  0.003661 -0.000284    14.452
   0.19398  0.81229  0.04864  1.16248  0.050463  0.002373 -0.000297    21.266
   0.21115  0.79553  0.05238  1.16940  0.048542  0.002056 -0.000536    23.611
   0.22833  0.77875  0.05606  1.16951  0.046661  0.002054 -0.000537    22.715
   0.24546  0.76200  0.05967  1.16959  0.044625  0.002054 -0.000538    21.722
   0.26249  0.74535  0.06319  1.16964  0.042493  0.002056 -0.000539    20.672
   0.27941  0.72877  0.06660  1.16968  0.040318  0.002057 -0.000539    19.595
   0.29629  0.71222  0.06990  1.16971  0.038109  0.002060 -0.000540    18.503
   0.31313  0.69568  0.07308  1.16974  0.035885  0.002062 -0.000541    17.406
   0.32994  0.67915  0.07616  1.16979  0.033666  0.002063 -0.000543    16.316
   0.34670  0.66266  0.07911  1.16986  0.031451  0.002065 -0.000545    15.234
   0.36339  0.64620  0.08193  1.16996  0.029264  0.002065 -0.000547    14.172
   0.38005  0.62976  0.08462  1.17012  0.027126  0.002064 -0.000551    13.143
   0.39672  0.61329  0.08718  1.17035  0.025033  0.002061 -0.000555    12.144
   0.41338  0.59681  0.08962  1.17068  0.022987  0.002057 -0.000561    11.176
   0.42997  0.58038  0.09191  1.17113  0.020997  0.002050 -0.000569    10.242
   0.44649  0.56400  0.09406  1.17177  0.019095  0.002041 -0.000579     9.358
   0.46301  0.54760  0.09605  1.17264  0.017283  0.002028 -0.000593     8.524
   0.47954  0.53117  0.09790  1.17381  0.015560  0.002011 -0.000611     7.739
   0.49603  0.51477  0.09961  1.17537  0.013917  0.001990 -0.000636     6.995
   0.51242  0.49845  0.10115  1.17742  0.012394  0.001964 -0.000669     6.312
   0.52875  0.48218  0.10252  1.18012  0.011009  0.001932 -0.000709     5.698
   0.54509  0.46588  0.10371  1.18363  0.009756  0.001894 -0.000724     5.151
   0.56144  0.44957  0.10475  1.18807  0.008615  0.001850 -0.000667     4.658
   0.57774  0.43329  0.10561  1.19351  0.007610  0.001799 -0.000457     4.229
   0.59394  0.41711  0.10630  1.19982  0.006728  0.001744 -0.000039     3.857
   0.61007  0.40098  0.10679  1.20715  0.005997  0.001684  0.000553     3.562
   0.62617  0.38489  0.10708  1.21538  0.005384  0.001618  0.001281     3.329
   0.64227  0.36879  0.10718  1.22411  0.004879  0.001549  0.002081     3.149
   0.65836  0.35270  0.10708  1.23292  0.004451  0.001481  0.002943     3.006
   0.67432  0.33674  0.10680  1.24152  0.004075  0.001413  0.003894     2.883
   0.69010  0.32097  0.10629  1.24924  0.003763  0.001350  0.004837     2.788
   0.70583  0.30526  0.10554  1.25548  0.003523  0.001292  0.005620     2.726
   0.72167  0.28945  0.10454  1.26041  0.003332  0.001239  0.006246     2.689
   0.73747  0.27369  0.10335  1.26532  0.003120  0.001184  0.007141     2.635
   0.75302  0.25820  0.10195  1.26931  0.002910  0.001130  0.008232     2.575
   0.76841  0.24291  0.10027  1.27042  0.002763  0.001085  0.008945     2.547
   0.78386  0.22758  0.09831  1.26987  0.002645  0.001043  0.009454     2.536
   0.79934  0.21226  0.09610  1.26900  0.002514  0.000999  0.010151     2.517
   0.81467  0.19713  0.09366  1.26696  0.002388  0.000956  0.010884     2.498
   0.82983  0.18221  0.09095  1.26353  0.002269  0.000914  0.011614     2.483
   0.84493  0.16741  0.08797  1.25828  0.002171  0.000874  0.012084     2.483
   0.85995  0.15275  0.08473  1.25263  0.002066  0.000833  0.012675     2.481
   0.87475  0.13836  0.08125  1.24655  0.001942  0.000788  0.013656     2.464
   0.88915  0.12444  0.07757  1.23842  0.001820  0.000744  0.014740     2.446
   0.90314  0.11101  0.07364  1.22760  0.001710  0.000702  0.015720     2.436
   0.91683  0.09797  0.06946  1.21425  0.001626  0.000662  0.016048     2.455
   0.92993  0.08560  0.06517  1.20210  0.001504  0.000616  0.017395     2.442
   0.94206  0.07425  0.06087  1.18717  0.001360  0.000569  0.020012     2.390
   0.95332  0.06387  0.05649  1.16386  0.001280  0.000534  0.020724     2.396
   0.96371  0.05444  0.05215  1.14040  0.001199  0.000498  0.021423     2.408
   0.97301  0.04611  0.04801  1.11810  0.001116  0.000460  0.022177     2.425
   0.98119  0.03891  0.04412  1.09603  0.000995  0.000419  0.025658     2.374
   0.98837  0.03273  0.04046  1.06567  0.000928  0.000389  0.026413     2.387
   0.99470  0.02743  0.03701  1.03531  0.000842  0.000356  0.029025     2.361
   1.00030  0.02288  0.03375  0.99837  0.000771  0.000329  0.031153     2.341
   1.00527  0.01898  0.03066  0.95714  0.000718  0.000305  0.031719     2.352
   1.00973  0.01561  0.02774  0.91241  0.000645  0.000280  0.035408     2.299
   1.01375  0.01272  0.02495  0.85643  0.000610  0.000264  0.034897     2.307
   1.01739  0.01024  0.02228  0.80008  0.000568  0.000246  0.034984     2.307
   1.02073  0.00811  0.01971  0.73813  0.000521  0.000228  0.035949     2.283
   1.02380  0.00630  0.01724  0.66798  0.000488  0.000213  0.034555     2.290
   1.02664  0.00476  0.01485  0.58827  0.000446  0.000200  0.034940     2.236
   1.02926  0.00350  0.01255  0.49946  0.000439  0.000194  0.029291     2.268
   1.03171  0.00246  0.01033  0.41463  0.000403  0.000177  0.026382     2.274
   1.03400  0.00163  0.00819  0.31075  0.000375  0.000171  0.022910     2.188
   1.03618  0.00098  0.00612  0.20734  0.000396  0.000174  0.013274     2.284
   1.03826  0.00048  0.00410  0.10245  0.000321  0.000144  0.008511     2.230
   1.04024  0.00015  0.00214 -0.03313  0.000321  0.000144  0.002754     2.230
   1.04215  0.00001  0.00024 -0.15856  0.000330  0.000148  0.012791     2.232
   1.04400  0.00012 -0.00161 -0.32354  0.000264  0.000121  0.034030     2.183
   1.04587  0.00052 -0.00343 -0.47742  0.000304  0.000131  0.038865     2.312
   1.04780  0.00123 -0.00524 -0.60318  0.000318  0.000143  0.050616     2.227
   1.04986  0.00223 -0.00703 -0.73328  0.000333  0.000148  0.057441     2.255
   1.05205  0.00354 -0.00879 -0.82444  0.000390  0.000167  0.050985     2.338
   1.05438  0.00514 -0.01048 -0.89262  0.000433  0.000186  0.050539     2.321
   1.05689  0.00705 -0.01212 -0.93844  0.000508  0.000212  0.042253     2.392
   1.05960  0.00924 -0.01371 -0.96987  0.000576  0.000240  0.038129     2.403
   1.06254  0.01171 -0.01530 -0.99511  0.000642  0.000266  0.034728     2.412
   1.06576  0.01450 -0.01689 -1.01660  0.000708  0.000293  0.032005     2.418
   1.06931  0.01766 -0.01852 -1.03507  0.000777  0.000320  0.029422     2.427
   1.07328  0.02125 -0.02021 -1.05093  0.000851  0.000349  0.027001     2.437
   1.07773  0.02534 -0.02197 -1.06900  0.000904  0.000375  0.026501     2.413
   1.08275  0.03002 -0.02380 -1.08674  0.000971  0.000402  0.025039     2.414
   1.08845  0.03539 -0.02569 -1.10234  0.001052  0.000433  0.023105     2.429
   1.09493  0.04158 -0.02763 -1.11523  0.001146  0.000468  0.021032     2.448
   1.10237  0.04875 -0.02960 -1.12490  0.001258  0.000508  0.018827     2.474
   1.11095  0.05710 -0.03158 -1.12964  0.001403  0.000557  0.016161     2.518
   1.12083  0.06678 -0.03358 -1.13100  0.001563  0.000612  0.013996     2.553
   1.13204  0.07781 -0.03556 -1.13169  0.001712  0.000669  0.012675     2.560
   1.14448  0.09010 -0.03747 -1.13039  0.001887  0.000730  0.011181     2.584
   1.15809  0.10359 -0.03926 -1.12919  0.002046  0.000791  0.010276     2.586
   1.17266  0.11806 -0.04096 -1.12709  0.002221  0.000854  0.009302     2.600
   1.18781  0.13314 -0.04249 -1.12707  0.002342  0.000909  0.009070     2.576
   1.20335  0.14862 -0.04385 -1.12667  0.002485  0.000964  0.008538     2.576
   1.21923  0.16445 -0.04503 -1.12602  0.002629  0.001019  0.008025     2.581
   1.23540  0.18059 -0.04604 -1.12449  0.002791  0.001075  0.007416     2.597
   1.25175  0.19691 -0.04691 -1.12383  0.002913  0.001125  0.007154     2.590
   1.26813  0.21328 -0.04763 -1.12331  0.003033  0.001173  0.006900     2.586
   1.28457  0.22971 -0.04819 -1.12231  0.003168  0.001221  0.006545     2.593
   1.30115  0.24629 -0.04860 -1.12094  0.003308  0.001270  0.006182     2.604
   1.31783  0.26296 -0.04890 -1.11961  0.003439  0.001318  0.005899     2.610
   1.33448  0.27961 -0.04908 -1.11849  0.003557  0.001362  0.005694     2.611
   1.35110  0.29624 -0.04912 -1.11709  0.003684  0.001407  0.005446     2.618
   1.36778  0.31291 -0.04903 -1.11516  0.003830  0.001454  0.005133     2.634
   1.38450  0.32963 -0.04882 -1.11318  0.003970  0.001500  0.004871     2.646
   1.40120  0.34633 -0.04849 -1.11076  0.004125  0.001547  0.004572     2.666
   1.41786  0.36298 -0.04803 -1.10810  0.004285  0.001595  0.004281     2.687
   1.43449  0.37961 -0.04745 -1.10476  0.004477  0.001646  0.003917     2.720
   1.45114  0.39623 -0.04673 -1.10088  0.004695  0.001699  0.003525     2.763
   1.46777  0.41285 -0.04588 -1.09635  0.004953  0.001756  0.003086     2.821
   1.48439  0.42943 -0.04489 -1.09138  0.005244  0.001815  0.002637     2.889
   1.50097  0.44597 -0.04378 -1.08577  0.005607  0.001879  0.002127     2.985
   1.51751  0.46247 -0.04253 -1.07989  0.006035  0.001944  0.001611     3.104
   1.53401  0.47892 -0.04112 -1.07379  0.006576  0.002012  0.001063     3.269
   1.55050  0.49532 -0.03957 -1.06795  0.007233  0.002077  0.000545     3.482
   1.56702  0.51176 -0.03785 -1.06267  0.008043  0.002138  0.000086     3.761
   1.58368  0.52831 -0.03597 -1.05815  0.009001  0.002192 -0.000252     4.105
   1.60055  0.54506 -0.03395 -1.05420  0.010085  0.002242 -0.000444     4.498
   1.61761  0.56199 -0.03181 -1.05082  0.011263  0.002287 -0.000518     4.925
   1.63483  0.57906 -0.02959 -1.04804  0.012517  0.002327 -0.000525     5.380
   1.65218  0.59626 -0.02732 -1.04574  0.013816  0.002362 -0.000509     5.850
   1.66962  0.61355 -0.02500 -1.04384  0.015148  0.002393 -0.000487     6.331
   1.68712  0.63090 -0.02268 -1.04225  0.016479  0.002420 -0.000468     6.809
   1.70462  0.64824 -0.02037 -1.04088  0.017787  0.002445 -0.000453     7.274
   1.72205  0.66552 -0.01809 -1.03969  0.019063  0.002469 -0.000441     7.722
   1.73939  0.68272 -0.01585 -1.03864  0.020296  0.002490 -0.000432     8.151
   1.75663  0.69982 -0.01367 -1.03768  0.021462  0.002510 -0.000424     8.549
   1.77378  0.71684 -0.01156 -1.03679  0.022547  0.002530 -0.000417     8.911
   1.79085  0.73379 -0.00953 -1.03595  0.023547  0.002550 -0.000411     9.235
   1.80784  0.75067 -0.00760 -1.03514  0.024452  0.002569 -0.000405     9.517
   1.82474  0.76746 -0.00576 -1.03434  0.025246  0.002589 -0.000401     9.750
   1.84154  0.78418 -0.00404 -1.03354  0.025923  0.002610 -0.000396     9.933
   1.85823  0.80079 -0.00245 -1.03274  0.026473  0.002631 -0.000392    10.061
   1.87481  0.81731 -0.00100 -1.03192  0.026880  0.002654 -0.000388    10.130
   1.89126  0.83371  0.00030 -1.03107  0.027133  0.002677 -0.000384    10.134
   1.90759  0.85000  0.00143 -1.03017  0.027223  0.002703 -0.000381    10.073
   1.92381  0.86619  0.00238 -1.02923  0.027138  0.002730 -0.000377     9.942
   1.93987  0.88223  0.00314 -1.02823  0.026879  0.002758 -0.000374     9.745
   1.95573  0.89808  0.00370 -1.02717  0.026435  0.002789 -0.000371     9.479
   1.97131  0.91366  0.00404 -1.02603  0.025803  0.002821 -0.000368     9.146
   1.98653  0.92887  0.00415 -1.02482  0.024973  0.002855 -0.000366     8.746
   2.00124  0.94358  0.00401 -1.02353  0.023957  0.002891 -0.000365     8.287
   2.01526  0.95760  0.00361 -1.02217  0.022786  0.002927 -0.000365     7.784
   2.02837  0.97069  0.00296 -1.02077  0.021497  0.002963 -0.000367     7.255
   2.04040  0.98268  0.00205 -1.01938  0.020165  0.002997 -0.000371     6.727
   2.05125  0.99348  0.00090 -1.01806  0.018912  0.003029 -0.000377     6.244
   2.05783  1.00000  0.00000 -1.01780  0.019723  0.003034 -0.000225     6.500
   2.05783  1.00010 -0.00002  1.01780  0.101855  0.015366  0.000000     6.629
   2.06446  1.00660 -0.00133  1.01279  0.095775  0.016008  0.000000     5.983
   2.07221  1.01424 -0.00264  1.00713  0.092741  0.016720  0.000000     5.547
   2.08127  1.02319 -0.00401  1.00030  0.089675  0.017575  0.000000     5.102
   2.09186  1.03367 -0.00548  0.99194  0.086425  0.018619  0.000000     4.642
   2.10423  1.04594 -0.00707  0.98149  0.082844  0.019924  0.000000     4.158
   2.11869  1.06030 -0.00878  0.96800  0.078866  0.021619  0.000000     3.648
   2.13560  1.07711 -0.01063  0.95293  0.074333  0.023532  0.000000     3.159
   2.15535  1.09676 -0.01263  0.94019  0.069070  0.025154  0.000000     2.746
   2.17845  1.11975 -0.01478  0.92986  0.063231  0.026455  0.000000     2.390
   2.20544  1.14665 -0.01708  0.92305  0.057020  0.027293  0.000000     2.089
   2.23698  1.17810 -0.01955  0.92060  0.050750  0.027581  0.000000     1.840
   2.27386  1.21487 -0.02217  0.92277  0.044800  0.027340  0.000000     1.639
   2.31695  1.25788 -0.02494  0.92892  0.039513  0.026701  0.000000     1.480
   2.36732  1.30817 -0.02786  0.93768  0.035096  0.025858  0.000000     1.357
   2.42619  1.36696 -0.03090  0.94741  0.031585  0.024990  0.000000     1.264
   2.49501  1.43570 -0.03404  0.95681  0.028886  0.024206  0.000000     1.193
   2.57543  1.51606 -0.03725  0.96520  0.026851  0.023546  0.000000     1.140
   2.66944  1.61001 -0.04048  0.97233  0.025336  0.023012  0.000000     1.101
   2.77931  1.71984 -0.04369  0.97823  0.024218  0.022586  0.000000     1.072
   2.90773  1.84822 -0.04681  0.98300  0.023399  0.022252  0.000000     1.052
   3.05782  1.99828 -0.04975  0.98833  0.022694  0.021889  0.000000     1.037
