#    s        x        y     Ue/Vinf    Dstar     Theta      Cf       H
   0.00000  1.00000  0.00000  1.02544  0.103486  0.016810 -0.000069     6.156
   0.00668  0.99360  0.00192  1.02709  0.100342  0.016593 -0.000070     6.047
   0.01807  0.98272  0.00530  1.03033  0.097305  0.016180 -0.000072     6.014
   0.03106  0.97032  0.00914  1.03422  0.094043  0.015699 -0.000075     5.990
   0.04516  0.95680  0.01317  1.03872  0.090775  0.015165 -0.000078     5.986
   0.06006  0.94246  0.01720  1.04379  0.087617  0.014586 -0.000081     6.007
   0.07565  0.92739  0.02118  1.04945  0.084601  0.013967 -0.000085     6.057
   0.09186  0.91167  0.02516  1.05574  0.081683  0.013308 -0.000090     6.138
   0.10852  0.89549  0.02915  1.06265  0.078814  0.012616 -0.000094     6.247
   0.12544  0.87905  0.03313  1.07016  0.076001  0.011899 -0.000100     6.387
   0.14250  0.86245  0.03708  1.07831  0.073249  0.011159 -0.000106     6.564
   0.15964  0.84577  0.04099  1.08713  0.070560  0.010399 -0.000114     6.785
   0.17681  0.82904  0.04484  1.09670  0.067931  0.009618 -0.000122     7.063
   0.19398  0.81229  0.04864  1.10711  0.065361  0.008815 -0.000133     7.415
   0.21115  0.79553  0.05238  1.11850  0.062846  0.007987 -0.000146     7.868
   0.22833  0.77875  0.05606  1.13106  0.060368  0.007131 -0.000163     8.465
   0.24546  0.76200  0.05967  1.14499  0.057913  0.006244 -0.000185     9.275
   0.26249  0.74535  0.06319  1.16078  0.055479  0.005309 -0.000217    10.450
   0.27941  0.72877  0.06660  1.17919  0.053043  0.004302 -0.000268    12.331
   0.29629  0.71222  0.06990  1.20176  0.050527  0.003169 -0.000318    15.942
   0.31313  0.69568  0.07308  1.22999  0.047826  0.001885 -0.000613    25.375
   0.32994  0.67915  0.07616  1.23010  0.045895  0.001883 -0.000615    24.369
   0.34670  0.66266  0.07911  1.23018  0.043809  0.001884 -0.000616    23.256
   0.36339  0.64620  0.08193  1.23023  0.041630  0.001885 -0.000616    22.080
   0.38005  0.62976  0.08462  1.23026  0.039405  0.001888 -0.000617    20.877
   0.39672  0.61329  0.08718  1.23029  0.037147  0.001890 -0.000617    19.655
   0.41338  0.59681  0.08962  1.23032  0.034863  0.001892 -0.000618    18.423
   0.42997  0.58038  0.09191  1.23035  0.032576  0.001895 -0.000620    17.193
   0.44649  0.56400  0.09406  1.23041  0.030313  0.001896 -0.000622    15.984
   0.46301  0.54760  0.09605  1.23052  0.028089  0.001897 -0.000624    14.807
   0.47954  0.53117  0.09790  1.23068  0.025890  0.001896 -0.000628    13.652
   0.49603  0.51477  0.09961  1.23091  0.023729  0.001895 -0.000633    12.525
   0.51242  0.49845  0.10115  1.23125  0.021633  0.001891 -0.000640    11.443
   0.52875  0.48218  0.10252  1.23176  0.019628  0.001884 -0.000650    10.419
   0.54509  0.46588  0.10371  1.23250  0.017712  0.001874 -0.000663     9.451
   0.56144  0.44957  0.10475  1.23352  0.015868  0.001861 -0.000680     8.528
   0.57774  0.43329  0.10561  1.23492  0.014118  0.001843 -0.000703     7.660
   0.59394  0.41711  0.10630  1.23683  0.012486  0.001821 -0.000736     6.857
   0.61007  0.40098  0.10679  1.23942  0.011003  0.001793 -0.000780     6.138
   0.62617  0.38489  0.10708  1.24288  0.009633  0.001758 -0.000825     5.479
   0.64227  0.36879  0.10718  1.24746  0.008423  0.001717 -0.000816     4.907
   0.65836  0.35270  0.10708  1.25331  0.007339  0.001668 -0.000651     4.400
   0.67432  0.33674  0.10680  1.26032  0.006393  0.001614 -0.000215     3.962
   0.69010  0.32097  0.10629  1.26859  0.005592  0.001553  0.000526     3.600
   0.70583  0.30526  0.10554  1.27799  0.004978  0.001487  0.001392     3.347
   0.72167  0.28945  0.10454  1.28804  0.004481  0.001419  0.002340     3.159
   0.73747  0.27369  0.10335  1.29854  0.004032  0.001348  0.003500     2.992
   0.75302  0.25820  0.10195  1.30857  0.003652  0.001279  0.004771     2.854
   0.76841  0.24291  0.10027  1.31673  0.003379  0.001218  0.005789     2.773
   0.78386  0.22758  0.09831  1.32335  0.003167  0.001163  0.006606     2.724
   0.79934  0.21226  0.09610  1.32928  0.002968  0.001108  0.007484     2.679
   0.81467  0.19713  0.09366  1.33430  0.002780  0.001054  0.008443     2.636
   0.82983  0.18221  0.09095  1.33773  0.002621  0.001005  0.009266     2.609
   0.84493  0.16741  0.08797  1.33975  0.002490  0.000958  0.009867     2.600
   0.85995  0.15275  0.08473  1.34170  0.002348  0.000908  0.010670     2.584
   0.87475  0.13836  0.08125  1.34291  0.002207  0.000859  0.011558     2.569
   0.88915  0.12444  0.07757  1.34372  0.002048  0.000808  0.012956     2.534
   0.90314  0.11101  0.07364  1.34143  0.001926  0.000762  0.013862     2.527
   0.91683  0.09797  0.06946  1.33782  0.001828  0.000717  0.014246     2.547
   0.92993  0.08560  0.06517  1.33640  0.001675  0.000665  0.016037     2.518
   0.94206  0.07425  0.06087  1.33234  0.001511  0.000615  0.018890     2.458
   0.95332  0.06387  0.05649  1.32049  0.001432  0.000577  0.019287     2.480
   0.96371  0.05444  0.05215  1.31082  0.001344  0.000537  0.019935     2.502
   0.97301  0.04611  0.04801  1.30341  0.001231  0.000493  0.021811     2.495
   0.98119  0.03891  0.04412  1.29463  0.001111  0.000451  0.024793     2.464
   0.98837  0.03273  0.04046  1.28130  0.001019  0.000415  0.027021     2.455
   0.99470  0.02743  0.03701  1.26577  0.000922  0.000381  0.030449     2.423
   1.00030  0.02288  0.03375  1.24461  0.000844  0.000351  0.033334     2.404
   1.00527  0.01898  0.03066  1.21942  0.000779  0.000325  0.035667     2.397
   1.00973  0.01561  0.02774  1.19112  0.000711  0.000300  0.039044     2.373
   1.01375  0.01272  0.02495  1.15698  0.000658  0.000278  0.041268     2.367
   1.01739  0.01024  0.02228  1.11780  0.000598  0.000257  0.045616     2.327
   1.02073  0.00811  0.01971  1.06840  0.000560  0.000241  0.046750     2.322
   1.02380  0.00630  0.01724  1.01653  0.000526  0.000225  0.046724     2.336
   1.02664  0.00476  0.01485  0.95842  0.000472  0.000208  0.052250     2.270
   1.02926  0.00350  0.01255  0.88347  0.000455  0.000200  0.049661     2.276
   1.03171  0.00246  0.01033  0.80829  0.000432  0.000190  0.048021     2.271
   1.03400  0.00163  0.00819  0.72758  0.000410  0.000182  0.046285     2.254
   1.03618  0.00098  0.00612  0.64179  0.000396  0.000175  0.041853     2.265
   1.03826  0.00048  0.00410  0.55360  0.000373  0.000165  0.038442     2.263
   1.04024  0.00015  0.00214  0.45898  0.000343  0.000150  0.033861     2.286
   1.04215  0.00001  0.00024  0.34163  0.000305  0.000137  0.030151     2.220
   1.04400  0.00012 -0.00161  0.20273  0.000309  0.000138  0.017358     2.237
   1.04587  0.00052 -0.00343  0.06087  0.000293  0.000131  0.005536     2.230
   1.04780  0.00123 -0.00524 -0.09751  0.000293  0.000131  0.008870     2.230
   1.04986  0.00223 -0.00703 -0.24570  0.000321  0.000143  0.020062     2.248
   1.05205  0.00354 -0.00879 -0.36512  0.000366  0.000161  0.025769     2.266
   1.05438  0.00514 -0.01048 -0.46811  0.000395  0.000175  0.030936     2.254
   1.05689  0.00705 -0.01212 -0.54798  0.000457  0.000198  0.029634     2.313
   1.05960  0.00924 -0.01371 -0.60861  0.000514  0.000222  0.029317     2.311
   1.06254  0.01171 -0.01530 -0.65960  0.000572  0.000246  0.028247     2.322
   1.06576  0.01450 -0.01689 -0.70894  0.000610  0.000265  0.029048     2.301
   1.06931  0.01766 -0.01852 -0.74624  0.000695  0.000294  0.025179     2.366
   1.07328  0.02125 -0.02021 -0.78411  0.000732  0.000316  0.026275     2.320
   1.07773  0.02534 -0.02197 -0.81920  0.000801  0.000341  0.024487     2.346
   1.08275  0.03002 -0.02380 -0.85377  0.000853  0.000365  0.024191     2.336
   1.08845  0.03539 -0.02569 -0.88469  0.000930  0.000394  0.022463     2.360
   1.09493  0.04158 -0.02763 -0.91345  0.001005  0.000425  0.021362     2.365
   1.10237  0.04875 -0.02960 -0.93805  0.001104  0.000462  0.019483     2.390
   1.11095  0.05710 -0.03158 -0.95635  0.001234  0.000508  0.017108     2.428
   1.12083  0.06678 -0.03358 -0.97092  0.001367  0.000559  0.015396     2.446
   1.13204  0.07781 -0.03556 -0.98413  0.001494  0.000610  0.014237     2.448
   1.14448  0.09010 -0.03747 -0.99565  0.001631  0.000664  0.013097     2.456
   1.15809  0.10359 -0.03926 -1.00438  0.001786  0.000722  0.011829     2.474
   1.17266  0.11806 -0.04096 -1.01241  0.001922  0.000777  0.011089     2.473
   1.18781  0.13314 -0.04249 -1.02102  0.002033  0.000827  0.010732     2.459
   1.20335  0.14862 -0.04385 -1.02801  0.002166  0.000878  0.010059     2.467
   1.21923  0.16445 -0.04503 -1.03438  0.002286  0.000926  0.009576     2.469
   1.23540  0.18059 -0.04604 -1.03879  0.002430  0.000977  0.008883     2.486
   1.25175  0.19691 -0.04691 -1.04400  0.002528  0.001021  0.008684     2.475
   1.26813  0.21328 -0.04763 -1.04851  0.002637  0.001065  0.008353     2.476
   1.28457  0.22971 -0.04819 -1.05252  0.002744  0.001107  0.008034     2.478
   1.30115  0.24629 -0.04860 -1.05554  0.002865  0.001151  0.007631     2.489
   1.31783  0.26296 -0.04890 -1.05852  0.002970  0.001192  0.007370     2.491
   1.33448  0.27961 -0.04908 -1.06183  0.003054  0.001230  0.007240     2.484
   1.35110  0.29624 -0.04912 -1.06416  0.003164  0.001269  0.006945     2.492
   1.36778  0.31291 -0.04903 -1.06648  0.003260  0.001307  0.006739     2.494
   1.38450  0.32963 -0.04882 -1.06831  0.003365  0.001345  0.006495     2.501
   1.40120  0.34633 -0.04849 -1.06983  0.003468  0.001383  0.006267     2.507
   1.41786  0.36298 -0.04803 -1.07108  0.003571  0.001421  0.006053     2.513
   1.43449  0.37961 -0.04745 -1.07179  0.003684  0.001459  0.005800     2.525
   1.45114  0.39623 -0.04673 -1.07193  0.003809  0.001499  0.005518     2.540
   1.46777  0.41285 -0.04588 -1.07143  0.003947  0.001542  0.005204     2.560
   1.48439  0.42943 -0.04489 -1.07046  0.004091  0.001585  0.004895     2.582
   1.50097  0.44597 -0.04378 -1.06883  0.004255  0.001630  0.004552     2.610
   1.51751  0.46247 -0.04253 -1.06635  0.004448  0.001679  0.004151     2.649
   1.53401  0.47892 -0.04112 -1.06304  0.004677  0.001733  0.003704     2.699
   1.55050  0.49532 -0.03957 -1.05890  0.004950  0.001791  0.003210     2.765
   1.56702  0.51176 -0.03785 -1.05377  0.005298  0.001855  0.002639     2.856
   1.58368  0.52831 -0.03597 -1.04799  0.005721  0.001923  0.002043     2.975
   1.60055  0.54506 -0.03395 -1.04201  0.006205  0.001993  0.001488     3.113
   1.61761  0.56199 -0.03181 -1.03621  0.006725  0.002062  0.001018     3.262
   1.63483  0.57906 -0.02959 -1.03071  0.007287  0.002128  0.000623     3.424
   1.65218  0.59626 -0.02732 -1.02562  0.007868  0.002191  0.000314     3.591
   1.66962  0.61355 -0.02500 -1.02096  0.008461  0.002250  0.000079     3.761
   1.68712  0.63090 -0.02268 -1.01668  0.009047  0.002305 -0.000089     3.924
   1.70462  0.64824 -0.02037 -1.01274  0.009618  0.002359 -0.000206     4.078
   1.72205  0.66552 -0.01809 -1.00909  0.010170  0.002409 -0.000285     4.221
   1.73939  0.68272 -0.01585 -1.00569  0.010698  0.002458 -0.000337     4.351
   1.75663  0.69982 -0.01367 -1.00251  0.011179  0.002506 -0.000367     4.461
   1.77378  0.71684 -0.01156 -0.99953  0.011607  0.002551 -0.000383     4.549
   1.79085  0.73379 -0.00953 -0.99671  0.011978  0.002596 -0.000390     4.614
   1.80784  0.75067 -0.00760 -0.99402  0.012285  0.002639 -0.000390     4.655
   1.82474  0.76746 -0.00576 -0.99145  0.012520  0.002682 -0.000386     4.668
   1.84154  0.78418 -0.00404 -0.98895  0.012673  0.002724 -0.000376     4.652
   1.85823  0.80079 -0.00245 -0.98653  0.012740  0.002766 -0.000361     4.606
   1.87481  0.81731 -0.00100 -0.98415  0.012709  0.002807 -0.000338     4.528
   1.89126  0.83371  0.00030 -0.98182  0.012570  0.002848 -0.000303     4.414
   1.90759  0.85000  0.00143 -0.97953  0.012321  0.002888 -0.000249     4.267
   1.92381  0.86619  0.00238 -0.97726  0.011955  0.002927 -0.000163     4.084
   1.93987  0.88223  0.00314 -0.97512  0.011481  0.002965 -0.000030     3.872
   1.95573  0.89808  0.00370 -0.97333  0.010897  0.002997  0.000172     3.636
   1.97131  0.91366  0.00404 -0.97229  0.010213  0.003018  0.000469     3.384
   1.98653  0.92887  0.00415 -0.97264  0.009426  0.003017  0.000895     3.124
   2.00124  0.94358  0.00401 -0.97528  0.008560  0.002986  0.001490     2.867
   2.01526  0.95760  0.00361 -0.98129  0.007637  0.002914  0.002299     2.621
   2.02837  0.97069  0.00296 -0.99212  0.006672  0.002792  0.003411     2.390
   2.04040  0.98268  0.00205 -1.00962  0.005688  0.002615  0.004968     2.175
   2.05125  0.99348  0.00090 -1.03729  0.004680  0.002372  0.007313     1.973
   2.05783  1.00000  0.00000 -1.02544  0.005240  0.002505  0.005879     2.092
   2.05783  1.00010 -0.00002  1.02544  0.108726  0.019315  0.000000     5.629
   2.06446  1.00660 -0.00132  1.02182  0.103905  0.019830  0.000000     5.240
   2.07221  1.01424 -0.00260  1.01782  0.101547  0.020391  0.000000     4.980
   2.08127  1.02320 -0.00392  1.01301  0.099165  0.021062  0.000000     4.708
   2.09186  1.03370 -0.00532  1.00717  0.096629  0.021876  0.000000     4.417
   2.10423  1.04598 -0.00680  0.99996  0.093810  0.022883  0.000000     4.100
   2.11869  1.06036 -0.00838  0.99085  0.090629  0.024158  0.000000     3.752
   2.13560  1.07718 -0.01004  0.97938  0.087027  0.025774  0.000000     3.377
   2.15535  1.09686 -0.01178  0.96860  0.082769  0.027302  0.000000     3.032
   2.17845  1.11988 -0.01361  0.95884  0.077873  0.028683  0.000000     2.715
   2.20544  1.14680 -0.01549  0.95050  0.072415  0.029851  0.000000     2.426
   2.23698  1.17829 -0.01742  0.94434  0.066532  0.030696  0.000000     2.167
   2.27386  1.21511 -0.01935  0.94104  0.060453  0.031135  0.000000     1.942
   2.31695  1.25817 -0.02125  0.94094  0.054480  0.031147  0.000000     1.749
   2.36732  1.30850 -0.02306  0.94391  0.048924  0.030790  0.000000     1.589
   2.42619  1.36735 -0.02471  0.94925  0.044030  0.030185  0.000000     1.459
   2.49501  1.43615 -0.02611  0.95591  0.039921  0.029474  0.000000     1.354
   2.57543  1.51657 -0.02713  0.96289  0.036596  0.028772  0.000000     1.272
   2.66944  1.61057 -0.02765  0.96946  0.033968  0.028146  0.000000     1.207
   2.77931  1.72044 -0.02750  0.97527  0.031923  0.027616  0.000000     1.156
   2.90773  1.84886 -0.02646  0.98020  0.030351  0.027183  0.000000     1.117
   3.05782  1.99894 -0.02430  0.98740  0.028852  0.026573  0.000000     1.086
