#    s        x        y     Ue/Vinf    Dstar     Theta      Cf       H
   0.00000  1.00000  0.00000  1.05593  0.131112  0.020351 -0.000057     6.443
   0.00668  0.99360  0.00192  1.05708  0.128037  0.020165 -0.000058     6.349
   0.01807  0.98272  0.00530  1.05930  0.124650  0.019817 -0.000060     6.290
   0.03106  0.97032  0.00914  1.06194  0.120908  0.019415 -0.000061     6.228
   0.04516  0.95680  0.01317  1.06494  0.117057  0.018971 -0.000063     6.170
   0.06006  0.94246  0.01720  1.06828  0.113240  0.018494 -0.000065     6.123
   0.07565  0.92739  0.02118  1.07196  0.109500  0.017985 -0.000067     6.088
   0.09186  0.91167  0.02516  1.07600  0.105802  0.017448 -0.000070     6.064
   0.10852  0.89549  0.02915  1.08037  0.102108  0.016888 -0.000073     6.046
   0.12544  0.87905  0.03313  1.08505  0.098437  0.016311 -0.000076     6.035
   0.14250  0.86245  0.03708  1.09004  0.094805  0.015722 -0.000079     6.030
   0.15964  0.84577  0.04099  1.09535  0.091219  0.015121 -0.000082     6.033
   0.17681  0.82904  0.04484  1.10100  0.087687  0.014509 -0.000086     6.043
   0.19398  0.81229  0.04864  1.10701  0.084214  0.013888 -0.000090     6.064
   0.21115  0.79553  0.05238  1.11342  0.080806  0.013255 -0.000095     6.096
   0.22833  0.77875  0.05606  1.12029  0.077456  0.012610 -0.000100     6.142
   0.24546  0.76200  0.05967  1.12763  0.074166  0.011955 -0.000106     6.204
   0.26249  0.74535  0.06319  1.13549  0.070967  0.011291 -0.000112     6.285
   0.27941  0.72877  0.06660  1.14393  0.067875  0.010616 -0.000120     6.394
   0.29629  0.71222  0.06990  1.15305  0.064890  0.009926 -0.000128     6.537
   0.31313  0.69568  0.07308  1.16296  0.062009  0.009221 -0.000138     6.725
   0.32994  0.67915  0.07616  1.17376  0.059233  0.008497 -0.000149     6.971
   0.34670  0.66266  0.07911  1.18558  0.056558  0.007755 -0.000163     7.293
   0.36339  0.64620  0.08193  1.19858  0.053988  0.006993 -0.000180     7.721
   0.38005  0.62976  0.08462  1.21300  0.051521  0.006205 -0.000202     8.303
   0.39672  0.61329  0.08718  1.22921  0.049133  0.005383 -0.000231     9.127
   0.41338  0.59681  0.08962  1.24800  0.046784  0.004506 -0.000275    10.384
   0.42997  0.58038  0.09191  1.27006  0.044441  0.003562 -0.000348    12.475
   0.44649  0.56400  0.09406  1.29778  0.042020  0.002486 -0.000370    16.900
   0.46301  0.54760  0.09605  1.32030  0.039720  0.001712 -0.000727    23.206
   0.47954  0.53117  0.09790  1.32047  0.037810  0.001710 -0.000729    22.116
   0.49603  0.51477  0.09961  1.32060  0.035755  0.001709 -0.000731    20.918
   0.51242  0.49845  0.10115  1.32070  0.033631  0.001710 -0.000733    19.670
   0.52875  0.48218  0.10252  1.32081  0.031487  0.001710 -0.000735    18.410
   0.54509  0.46588  0.10371  1.32093  0.029328  0.001711 -0.000737    17.144
   0.56144  0.44957  0.10475  1.32107  0.027160  0.001711 -0.000740    15.877
   0.57774  0.43329  0.10561  1.32126  0.025000  0.001710 -0.000744    14.620
   0.59394  0.41711  0.10630  1.32153  0.022881  0.001708 -0.000750    13.397
   0.61007  0.40098  0.10679  1.32191  0.020818  0.001704 -0.000758    12.216
   0.62617  0.38489  0.10708  1.32246  0.018825  0.001698 -0.000768    11.087
   0.64227  0.36879  0.10718  1.32325  0.016908  0.001689 -0.000783    10.011
   0.65836  0.35270  0.10708  1.32435  0.015056  0.001676 -0.000802     8.981
   0.67432  0.33674  0.10680  1.32587  0.013300  0.001660 -0.000830     8.012
   0.69010  0.32097  0.10629  1.32798  0.011668  0.001639 -0.000868     7.120
   0.70583  0.30526  0.10554  1.33093  0.010217  0.001611 -0.000921     6.342
   0.72167  0.28945  0.10454  1.33497  0.008896  0.001577 -0.000984     5.642
   0.73747  0.27369  0.10335  1.34035  0.007669  0.001536 -0.000995     4.994
   0.75302  0.25820  0.10195  1.34729  0.006595  0.001487 -0.000812     4.435
   0.76841  0.24291  0.10027  1.35576  0.005724  0.001433 -0.000319     3.995
   0.78386  0.22758  0.09831  1.36577  0.005042  0.001373  0.000416     3.673
   0.79934  0.21226  0.09610  1.37736  0.004441  0.001306  0.001464     3.400
   0.81467  0.19713  0.09366  1.38977  0.003964  0.001238  0.002620     3.203
   0.82983  0.18221  0.09095  1.40226  0.003586  0.001170  0.003773     3.065
   0.84493  0.16741  0.08797  1.41425  0.003291  0.001105  0.004773     2.978
   0.85995  0.15275  0.08473  1.42622  0.003021  0.001041  0.005872     2.903
   0.87475  0.13836  0.08125  1.43785  0.002775  0.000978  0.007059     2.838
   0.88915  0.12444  0.07757  1.44895  0.002544  0.000916  0.008421     2.777
   0.90314  0.11101  0.07364  1.45862  0.002353  0.000858  0.009581     2.742
   0.91683  0.09797  0.06946  1.46707  0.002210  0.000804  0.010174     2.749
   0.92993  0.08560  0.06517  1.47775  0.002009  0.000744  0.011984     2.700
   0.94206  0.07425  0.06087  1.48714  0.001806  0.000686  0.014548     2.633
   0.95332  0.06387  0.05649  1.49123  0.001699  0.000640  0.015104     2.655
   0.96371  0.05444  0.05215  1.49724  0.001587  0.000593  0.015786     2.678
   0.97301  0.04611  0.04801  1.50589  0.001441  0.000543  0.017964     2.656
   0.98119  0.03891  0.04412  1.51353  0.001295  0.000495  0.021092     2.614
   0.98837  0.03273  0.04046  1.51792  0.001172  0.000454  0.024205     2.584
   0.99470  0.02743  0.03701  1.51956  0.001063  0.000416  0.027584     2.555
   1.00030  0.02288  0.03375  1.51834  0.000960  0.000382  0.031901     2.515
   1.00527  0.01898  0.03066  1.51212  0.000879  0.000352  0.035283     2.499
   1.00973  0.01561  0.02774  1.50341  0.000798  0.000324  0.040130     2.464
   1.01375  0.01272  0.02495  1.48892  0.000728  0.000299  0.044943     2.434
   1.01739  0.01024  0.02228  1.46853  0.000669  0.000277  0.049226     2.413
   1.02073  0.00811  0.01971  1.44281  0.000614  0.000257  0.054264     2.384
   1.02380  0.00630  0.01724  1.40986  0.000570  0.000240  0.057615     2.374
   1.02664  0.00476  0.01485  1.37067  0.000516  0.000223  0.065794     2.311
   1.02926  0.00350  0.01255  1.31706  0.000498  0.000214  0.064147     2.332
   1.03171  0.00246  0.01033  1.26361  0.000458  0.000201  0.070546     2.277
   1.03400  0.00163  0.00819  1.19772  0.000450  0.000195  0.065909     2.310
   1.03618  0.00098  0.00612  1.13620  0.000422  0.000184  0.067963     2.289
   1.03826  0.00048  0.00410  1.07189  0.000413  0.000175  0.061224     2.362
   1.04024  0.00015  0.00214  1.01323  0.000363  0.000156  0.067951     2.328
   1.04215  0.00001  0.00024  0.92743  0.000322  0.000141  0.073280     2.283
   1.04400  0.00012 -0.00161  0.81062  0.000296  0.000131  0.070408     2.269
   1.04587  0.00052 -0.00343  0.65898  0.000278  0.000126  0.064323     2.209
   1.04780  0.00123 -0.00524  0.48300  0.000296  0.000134  0.044257     2.212
   1.04986  0.00223 -0.00703  0.32129  0.000309  0.000138  0.027517     2.237
   1.05205  0.00354 -0.00879  0.16167  0.000315  0.000142  0.013813     2.218
   1.05438  0.00514 -0.01048  0.02154  0.000395  0.000177  0.001453     2.230
   1.05689  0.00705 -0.01212 -0.09163  0.000395  0.000177  0.006194     2.230
   1.05960  0.00924 -0.01371 -0.19198  0.000454  0.000200  0.010944     2.263
   1.06254  0.01171 -0.01530 -0.27604  0.000498  0.000222  0.014565     2.247
   1.06576  0.01450 -0.01689 -0.35120  0.000546  0.000241  0.016545     2.269
   1.06931  0.01766 -0.01852 -0.41320  0.000615  0.000268  0.016921     2.292
   1.07328  0.02125 -0.02021 -0.47104  0.000660  0.000290  0.018290     2.273
   1.07773  0.02534 -0.02197 -0.52839  0.000706  0.000310  0.019102     2.278
   1.08275  0.03002 -0.02380 -0.58133  0.000767  0.000334  0.019033     2.296
   1.08845  0.03539 -0.02569 -0.62908  0.000837  0.000362  0.018636     2.309
   1.09493  0.04158 -0.02763 -0.67425  0.000904  0.000391  0.018445     2.311
   1.10237  0.04875 -0.02960 -0.71513  0.000993  0.000426  0.017481     2.331
   1.11095  0.05710 -0.03158 -0.75004  0.001102  0.000468  0.016158     2.355
   1.12083  0.06678 -0.03358 -0.77974  0.001223  0.000516  0.014877     2.372
   1.13204  0.07781 -0.03556 -0.80772  0.001330  0.000562  0.014243     2.367
   1.14448  0.09010 -0.03747 -0.83271  0.001453  0.000611  0.013296     2.378
   1.15809  0.10359 -0.03926 -0.85338  0.001592  0.000665  0.012210     2.396
   1.17266  0.11806 -0.04096 -0.87189  0.001715  0.000716  0.011582     2.396
   1.18781  0.13314 -0.04249 -0.88930  0.001823  0.000763  0.011179     2.390
   1.20335  0.14862 -0.04385 -0.90533  0.001928  0.000807  0.010778     2.389
   1.21923  0.16445 -0.04503 -0.91860  0.002051  0.000854  0.010139     2.403
   1.23540  0.18059 -0.04604 -0.92982  0.002172  0.000900  0.009593     2.413
   1.25175  0.19691 -0.04691 -0.94070  0.002267  0.000942  0.009354     2.407
   1.26813  0.21328 -0.04763 -0.95084  0.002359  0.000981  0.009107     2.405
   1.28457  0.22971 -0.04819 -0.95953  0.002463  0.001021  0.008733     2.413
   1.30115  0.24629 -0.04860 -0.96712  0.002568  0.001061  0.008375     2.420
   1.31783  0.26296 -0.04890 -0.97440  0.002658  0.001098  0.008153     2.420
   1.33448  0.27961 -0.04908 -0.98180  0.002731  0.001132  0.008058     2.413
   1.35110  0.29624 -0.04912 -0.98794  0.002827  0.001168  0.007769     2.421
   1.36778  0.31291 -0.04903 -0.99351  0.002920  0.001203  0.007521     2.426
   1.38450  0.32963 -0.04882 -0.99888  0.003002  0.001237  0.007346     2.427
   1.40120  0.34633 -0.04849 -1.00365  0.003090  0.001271  0.007138     2.432
   1.41786  0.36298 -0.04803 -1.00803  0.003176  0.001304  0.006950     2.436
   1.43449  0.37961 -0.04745 -1.01176  0.003269  0.001338  0.006723     2.443
   1.45114  0.39623 -0.04673 -1.01502  0.003363  0.001372  0.006503     2.451
   1.46777  0.41285 -0.04588 -1.01733  0.003476  0.001409  0.006205     2.467
   1.48439  0.42943 -0.04489 -1.01930  0.003583  0.001446  0.005960     2.478
   1.50097  0.44597 -0.04378 -1.02050  0.003704  0.001484  0.005667     2.496
   1.51751  0.46247 -0.04253 -1.02102  0.003835  0.001525  0.005359     2.516
   1.53401  0.47892 -0.04112 -1.02038  0.003999  0.001570  0.004959     2.548
   1.55050  0.49532 -0.03957 -1.01884  0.004186  0.001618  0.004531     2.586
   1.56702  0.51176 -0.03785 -1.01595  0.004425  0.001674  0.004001     2.644
   1.58368  0.52831 -0.03597 -1.01204  0.004707  0.001735  0.003442     2.714
   1.60055  0.54506 -0.03395 -1.00743  0.005025  0.001799  0.002901     2.792
   1.61761  0.56199 -0.03181 -1.00259  0.005350  0.001864  0.002440     2.870
   1.63483  0.57906 -0.02959 -0.99759  0.005692  0.001930  0.002032     2.949
   1.65218  0.59626 -0.02732 -0.99264  0.006032  0.001995  0.001697     3.024
   1.66962  0.61355 -0.02500 -0.98784  0.006367  0.002059  0.001425     3.092
   1.68712  0.63090 -0.02268 -0.98324  0.006684  0.002121  0.001212     3.152
   1.70462  0.64824 -0.02037 -0.97885  0.006986  0.002181  0.001044     3.204
   1.72205  0.66552 -0.01809 -0.97470  0.007268  0.002239  0.000915     3.247
   1.73939  0.68272 -0.01585 -0.97077  0.007532  0.002295  0.000814     3.282
   1.75663  0.69982 -0.01367 -0.96707  0.007766  0.002349  0.000744     3.307
   1.77378  0.71684 -0.01156 -0.96360  0.007970  0.002401  0.000700     3.320
   1.79085  0.73379 -0.00953 -0.96038  0.008132  0.002450  0.000686     3.319
   1.80784  0.75067 -0.00760 -0.95738  0.008260  0.002498  0.000691     3.307
   1.82474  0.76746 -0.00576 -0.95463  0.008346  0.002543  0.000722     3.283
   1.84154  0.78418 -0.00404 -0.95215  0.008390  0.002585  0.000776     3.246
   1.85823  0.80079 -0.00245 -0.94998  0.008386  0.002623  0.000856     3.197
   1.87481  0.81731 -0.00100 -0.94818  0.008331  0.002657  0.000968     3.135
   1.89126  0.83371  0.00030 -0.94687  0.008219  0.002686  0.001118     3.060
   1.90759  0.85000  0.00143 -0.94616  0.008049  0.002707  0.001313     2.973
   1.92381  0.86619  0.00238 -0.94624  0.007818  0.002719  0.001563     2.875
   1.93987  0.88223  0.00314 -0.94726  0.007539  0.002720  0.001869     2.771
   1.95573  0.89808  0.00370 -0.94954  0.007204  0.002708  0.002250     2.661
   1.97131  0.91366  0.00404 -0.95341  0.006819  0.002679  0.002723     2.546
   1.98653  0.92887  0.00415 -0.95949  0.006374  0.002628  0.003331     2.425
   2.00124  0.94358  0.00401 -0.96846  0.005874  0.002552  0.004118     2.302
   2.01526  0.95760  0.00361 -0.98121  0.005328  0.002448  0.005150     2.177
   2.02837  0.97069  0.00296 -0.99944  0.004726  0.002307  0.006581     2.048
   2.04040  0.98268  0.00205 -1.02568  0.004071  0.002123  0.008671     1.917
   2.05125  0.99348  0.00090 -1.06720  0.003317  0.001871  0.012247     1.773
   2.05783  1.00000  0.00000 -1.05593  0.003707  0.001981  0.010140     1.871
   2.05783  1.00010 -0.00002  1.05593  0.134819  0.022332  0.000000     6.037
   2.06446  1.00660 -0.00132  1.05318  0.130989  0.022795  0.000000     5.746
   2.07221  1.01425 -0.00255  1.05016  0.129224  0.023302  0.000000     5.546
   2.08127  1.02322 -0.00382  1.04658  0.127445  0.023901  0.000000     5.332
   2.09186  1.03372 -0.00514  1.04232  0.125531  0.024615  0.000000     5.100
   2.10423  1.04602 -0.00651  1.03720  0.123355  0.025475  0.000000     4.842
   2.11869  1.06041 -0.00792  1.03100  0.120819  0.026519  0.000000     4.556
   2.13560  1.07726 -0.00937  1.02339  0.117829  0.027805  0.000000     4.238
   2.15535  1.09696 -0.01084  1.01387  0.114304  0.029426  0.000000     3.884
   2.17845  1.12000 -0.01230  1.00162  0.110188  0.031533  0.000000     3.494
   2.20544  1.14696 -0.01371  0.98804  0.105295  0.033897  0.000000     3.106
   2.23698  1.17848 -0.01504  0.97633  0.099439  0.035951  0.000000     2.766
   2.27386  1.21533 -0.01620  0.96615  0.092786  0.037732  0.000000     2.459
   2.31695  1.25841 -0.01713  0.95830  0.085522  0.039087  0.000000     2.188
   2.36732  1.30878 -0.01771  0.95346  0.077959  0.039901  0.000000     1.954
   2.42619  1.36765 -0.01781  0.95195  0.070496  0.040145  0.000000     1.756
   2.49501  1.43646 -0.01726  0.95358  0.063545  0.039893  0.000000     1.593
   2.57543  1.51688 -0.01586  0.95762  0.057422  0.039304  0.000000     1.461
   2.66944  1.61085 -0.01337  0.96301  0.052281  0.038558  0.000000     1.356
   2.77931  1.72065 -0.00949  0.96881  0.048113  0.037798  0.000000     1.273
   2.90773  1.84895 -0.00387  0.97442  0.044796  0.037098  0.000000     1.208
   3.05782  1.99884  0.00393  0.98597  0.041209  0.035734  0.000000     1.153
