#    s        x        y     Ue/Vinf    Dstar     Theta      Cf       H
   0.00000  1.00000  0.00000  1.01193  0.092856  0.013715 -0.000080     6.770
   0.00668  0.99360  0.00192  1.01395  0.089510  0.013480 -0.000082     6.640
   0.01807  0.98272  0.00530  1.01795  0.086583  0.013029 -0.000086     6.645
   0.03106  0.97032  0.00914  1.02280  0.083503  0.012504 -0.000089     6.678
   0.04516  0.95680  0.01317  1.02845  0.080473  0.011919 -0.000094     6.752
   0.06006  0.94246  0.01720  1.03487  0.077589  0.011283 -0.000099     6.876
   0.07565  0.92739  0.02118  1.04210  0.074871  0.010601 -0.000106     7.063
   0.09186  0.91167  0.02516  1.05021  0.072268  0.009873 -0.000113     7.320
   0.10852  0.89549  0.02915  1.05923  0.069722  0.009105 -0.000122     7.658
   0.12544  0.87905  0.03313  1.06917  0.067227  0.008303 -0.000133     8.097
   0.14250  0.86245  0.03708  1.08013  0.064780  0.007470 -0.000148     8.672
   0.15964  0.84577  0.04099  1.09226  0.062370  0.006603 -0.000167     9.446
   0.17681  0.82904  0.04484  1.10595  0.059972  0.005688 -0.000193    10.543
   0.19398  0.81229  0.04864  1.12176  0.057554  0.004705 -0.000233    12.232
   0.21115  0.79553  0.05238  1.14067  0.055059  0.003619 -0.000286    15.212
   0.22833  0.77875  0.05606  1.16571  0.052313  0.002295 -0.000299    22.790
   0.24546  0.76200  0.05967  1.17234  0.050128  0.001984 -0.000556    25.270
   0.26249  0.74535  0.06319  1.17240  0.048012  0.001984 -0.000556    24.196
   0.27941  0.72877  0.06660  1.17243  0.045790  0.001986 -0.000557    23.054
   0.29629  0.71222  0.06990  1.17245  0.043502  0.001989 -0.000557    21.872
   0.31313  0.69568  0.07308  1.17245  0.041172  0.001992 -0.000557    20.666
   0.32994  0.67915  0.07616  1.17245  0.038820  0.001996 -0.000557    19.452
   0.34670  0.66266  0.07911  1.17245  0.036457  0.001999 -0.000558    18.237
   0.36339  0.64620  0.08193  1.17247  0.034108  0.002002 -0.000559    17.036
   0.38005  0.62976  0.08462  1.17250  0.031791  0.002004 -0.000561    15.861
   0.39672  0.61329  0.08718  1.17258  0.029508  0.002006 -0.000563    14.713
   0.41338  0.59681  0.08962  1.17270  0.027256  0.002006 -0.000566    13.590
   0.42997  0.58038  0.09191  1.17289  0.025055  0.002004 -0.000571    12.502
   0.44649  0.56400  0.09406  1.17318  0.022926  0.002001 -0.000577    11.460
   0.46301  0.54760  0.09605  1.17362  0.020878  0.001994 -0.000585    10.469
   0.47954  0.53117  0.09790  1.17425  0.018905  0.001985 -0.000595     9.523
   0.49603  0.51477  0.09961  1.17511  0.017011  0.001973 -0.000609     8.623
   0.51242  0.49845  0.10115  1.17629  0.015218  0.001956 -0.000629     7.780
   0.52875  0.48218  0.10252  1.17791  0.013560  0.001935 -0.000655     7.008
   0.54509  0.46588  0.10371  1.18009  0.012029  0.001908 -0.000691     6.305
   0.56144  0.44957  0.10475  1.18299  0.010606  0.001875 -0.000733     5.656
   0.57774  0.43329  0.10561  1.18678  0.009314  0.001836 -0.000744     5.073
   0.59394  0.41711  0.10630  1.19161  0.008172  0.001790 -0.000658     4.566
   0.61007  0.40098  0.10679  1.19751  0.007183  0.001737 -0.000389     4.135
   0.62617  0.38489  0.10708  1.20441  0.006335  0.001680  0.000106     3.771
   0.64227  0.36879  0.10718  1.21246  0.005626  0.001616  0.000795     3.482
   0.65836  0.35270  0.10708  1.22144  0.005032  0.001547  0.001634     3.253
   0.67432  0.33674  0.10680  1.23091  0.004522  0.001475  0.002624     3.065
   0.69010  0.32097  0.10629  1.24011  0.004105  0.001406  0.003660     2.920
   0.70583  0.30526  0.10554  1.24804  0.003799  0.001342  0.004520     2.830
   0.72167  0.28945  0.10454  1.25489  0.003555  0.001283  0.005256     2.771
   0.73747  0.27369  0.10335  1.26173  0.003294  0.001222  0.006277     2.695
   0.75302  0.25820  0.10195  1.26732  0.003056  0.001164  0.007390     2.625
   0.76841  0.24291  0.10027  1.27031  0.002884  0.001115  0.008194     2.587
   0.78386  0.22758  0.09831  1.27156  0.002747  0.001069  0.008793     2.569
   0.79934  0.21226  0.09610  1.27220  0.002606  0.001023  0.009495     2.548
   0.81467  0.19713  0.09366  1.27196  0.002465  0.000977  0.010317     2.523
   0.82983  0.18221  0.09095  1.27017  0.002334  0.000933  0.011125     2.502
   0.84493  0.16741  0.08797  1.26621  0.002237  0.000893  0.011523     2.506
   0.85995  0.15275  0.08473  1.26244  0.002120  0.000848  0.012214     2.499
   0.87475  0.13836  0.08125  1.25793  0.001993  0.000803  0.013164     2.483
   0.88915  0.12444  0.07757  1.25176  0.001864  0.000757  0.014317     2.462
   0.90314  0.11101  0.07364  1.24289  0.001745  0.000713  0.015438     2.446
   0.91683  0.09797  0.06946  1.23094  0.001668  0.000674  0.015515     2.475
   0.92993  0.08560  0.06517  1.22157  0.001533  0.000625  0.017154     2.453
   0.94206  0.07425  0.06087  1.20857  0.001383  0.000577  0.019923     2.396
   0.95332  0.06387  0.05649  1.18683  0.001309  0.000543  0.020387     2.410
   0.96371  0.05444  0.05215  1.16625  0.001228  0.000506  0.020996     2.427
   0.97301  0.04611  0.04801  1.14721  0.001132  0.000466  0.022347     2.429
   0.98119  0.03891  0.04412  1.12718  0.001025  0.000426  0.024804     2.406
   0.98837  0.03273  0.04046  1.10217  0.000932  0.000391  0.027349     2.382
   0.99470  0.02743  0.03701  1.07172  0.000853  0.000361  0.029602     2.363
   1.00030  0.02288  0.03375  1.03699  0.000790  0.000335  0.030966     2.361
   1.00527  0.01898  0.03066  0.99981  0.000724  0.000309  0.033094     2.345
   1.00973  0.01561  0.02774  0.95722  0.000666  0.000286  0.034877     2.331
   1.01375  0.01272  0.02495  0.90913  0.000615  0.000265  0.036367     2.318
   1.01739  0.01024  0.02228  0.85472  0.000567  0.000246  0.037615     2.302
   1.02073  0.00811  0.01971  0.79328  0.000527  0.000230  0.037832     2.293
   1.02380  0.00630  0.01724  0.72507  0.000490  0.000215  0.037756     2.279
   1.02664  0.00476  0.01485  0.64766  0.000458  0.000203  0.036865     2.255
   1.02926  0.00350  0.01255  0.56646  0.000439  0.000192  0.032627     2.288
   1.03171  0.00246  0.01033  0.47908  0.000398  0.000178  0.032067     2.231
   1.03400  0.00163  0.00819  0.37929  0.000391  0.000173  0.025232     2.256
   1.03618  0.00098  0.00612  0.27605  0.000376  0.000171  0.020187     2.195
   1.03826  0.00048  0.00410  0.17659  0.000386  0.000169  0.011593     2.283
   1.04024  0.00015  0.00214  0.06527  0.000295  0.000132  0.005890     2.230
   1.04215  0.00001  0.00024 -0.08832  0.000295  0.000132  0.007988     2.230
   1.04400  0.00012 -0.00161 -0.24184  0.000289  0.000130  0.022359     2.226
   1.04587  0.00052 -0.00343 -0.38487  0.000306  0.000136  0.032873     2.251
   1.04780  0.00123 -0.00524 -0.52404  0.000311  0.000140  0.045003     2.228
   1.04986  0.00223 -0.00703 -0.64772  0.000342  0.000150  0.048260     2.280
   1.05205  0.00354 -0.00879 -0.74562  0.000379  0.000166  0.049599     2.291
   1.05438  0.00514 -0.01048 -0.82318  0.000425  0.000184  0.047692     2.316
   1.05689  0.00705 -0.01212 -0.87782  0.000489  0.000207  0.042355     2.360
   1.05960  0.00924 -0.01371 -0.91096  0.000573  0.000237  0.035611     2.414
   1.06254  0.01171 -0.01530 -0.94041  0.000626  0.000262  0.034655     2.384
   1.06576  0.01450 -0.01689 -0.96460  0.000698  0.000290  0.031072     2.409
   1.06931  0.01766 -0.01852 -0.98720  0.000757  0.000315  0.029576     2.401
   1.07328  0.02125 -0.02021 -1.00816  0.000823  0.000342  0.027665     2.405
   1.07773  0.02534 -0.02197 -1.02964  0.000880  0.000367  0.026704     2.395
   1.08275  0.03002 -0.02380 -1.04905  0.000953  0.000396  0.024782     2.408
   1.08845  0.03539 -0.02569 -1.06849  0.001020  0.000424  0.023702     2.404
   1.09493  0.04158 -0.02763 -1.08471  0.001112  0.000458  0.021534     2.428
   1.10237  0.04875 -0.02960 -1.09747  0.001219  0.000497  0.019377     2.452
   1.11095  0.05710 -0.03158 -1.10338  0.001375  0.000548  0.016244     2.511
   1.12083  0.06678 -0.03358 -1.10742  0.001516  0.000600  0.014551     2.525
   1.13204  0.07781 -0.03556 -1.11046  0.001661  0.000656  0.013195     2.534
   1.14448  0.09010 -0.03747 -1.11219  0.001818  0.000714  0.011908     2.547
   1.15809  0.10359 -0.03926 -1.11218  0.001992  0.000776  0.010628     2.567
   1.17266  0.11806 -0.04096 -1.11239  0.002144  0.000836  0.009886     2.566
   1.18781  0.13314 -0.04249 -1.11406  0.002264  0.000889  0.009579     2.546
   1.20335  0.14862 -0.04385 -1.11525  0.002402  0.000943  0.009031     2.547
   1.21923  0.16445 -0.04503 -1.11611  0.002539  0.000995  0.008518     2.551
   1.23540  0.18059 -0.04604 -1.11595  0.002692  0.001049  0.007903     2.565
   1.25175  0.19691 -0.04691 -1.11665  0.002806  0.001097  0.007657     2.557
   1.26813  0.21328 -0.04763 -1.11725  0.002923  0.001144  0.007373     2.555
   1.28457  0.22971 -0.04819 -1.11782  0.003037  0.001189  0.007107     2.554
   1.30115  0.24629 -0.04860 -1.11749  0.003174  0.001236  0.006698     2.567
   1.31783  0.26296 -0.04890 -1.11720  0.003298  0.001282  0.006404     2.573
   1.33448  0.27961 -0.04908 -1.11748  0.003394  0.001322  0.006272     2.566
   1.35110  0.29624 -0.04912 -1.11718  0.003512  0.001365  0.006016     2.573
   1.36778  0.31291 -0.04903 -1.11654  0.003635  0.001408  0.005745     2.582
   1.38450  0.32963 -0.04882 -1.11569  0.003760  0.001451  0.005489     2.592
   1.40120  0.34633 -0.04849 -1.11466  0.003884  0.001493  0.005250     2.602
   1.41786  0.36298 -0.04803 -1.11334  0.004014  0.001536  0.005001     2.614
   1.43449  0.37961 -0.04745 -1.11141  0.004166  0.001581  0.004691     2.636
   1.45114  0.39623 -0.04673 -1.10910  0.004327  0.001627  0.004380     2.660
   1.46777  0.41285 -0.04588 -1.10600  0.004523  0.001677  0.003992     2.698
   1.48439  0.42943 -0.04489 -1.10248  0.004734  0.001728  0.003611     2.739
   1.50097  0.44597 -0.04378 -1.09819  0.004990  0.001784  0.003165     2.797
   1.51751  0.46247 -0.04253 -1.09339  0.005284  0.001843  0.002702     2.868
   1.53401  0.47892 -0.04112 -1.08791  0.005651  0.001906  0.002178     2.965
   1.55050  0.49532 -0.03957 -1.08198  0.006106  0.001972  0.001618     3.096
   1.56702  0.51176 -0.03785 -1.07590  0.006671  0.002040  0.001047     3.270
   1.58368  0.52831 -0.03597 -1.07008  0.007357  0.002106  0.000516     3.493
   1.60055  0.54506 -0.03395 -1.06488  0.008144  0.002167  0.000089     3.758
   1.61761  0.56199 -0.03181 -1.06035  0.009014  0.002222 -0.000213     4.057
   1.63483  0.57906 -0.02959 -1.05634  0.009939  0.002272 -0.000393     4.374
   1.65218  0.59626 -0.02732 -1.05278  0.010905  0.002319 -0.000480     4.702
   1.66962  0.61355 -0.02500 -1.04968  0.011894  0.002363 -0.000509     5.034
   1.68712  0.63090 -0.02268 -1.04698  0.012877  0.002403 -0.000508     5.359
   1.70462  0.64824 -0.02037 -1.04463  0.013845  0.002440 -0.000497     5.675
   1.72205  0.66552 -0.01809 -1.04255  0.014783  0.002474 -0.000481     5.975
   1.73939  0.68272 -0.01585 -1.04069  0.015682  0.002507 -0.000465     6.256
   1.75663  0.69982 -0.01367 -1.03900  0.016519  0.002537 -0.000452     6.511
   1.77378  0.71684 -0.01156 -1.03743  0.017287  0.002567 -0.000441     6.734
   1.79085  0.73379 -0.00953 -1.03595  0.017969  0.002596 -0.000431     6.922
   1.80784  0.75067 -0.00760 -1.03453  0.018564  0.002625 -0.000423     7.072
   1.82474  0.76746 -0.00576 -1.03315  0.019056  0.002654 -0.000416     7.181
   1.84154  0.78418 -0.00404 -1.03179  0.019440  0.002683 -0.000410     7.246
   1.85823  0.80079 -0.00245 -1.03043  0.019699  0.002713 -0.000405     7.262
   1.87481  0.81731 -0.00100 -1.02906  0.019827  0.002743 -0.000400     7.228
   1.89126  0.83371  0.00030 -1.02765  0.019807  0.002775 -0.000396     7.139
   1.90759  0.85000  0.00143 -1.02620  0.019631  0.002807 -0.000394     6.993
   1.92381  0.86619  0.00238 -1.02468  0.019289  0.002841 -0.000392     6.788
   1.93987  0.88223  0.00314 -1.02308  0.018781  0.002877 -0.000392     6.528
   1.95573  0.89808  0.00370 -1.02141  0.018099  0.002914 -0.000394     6.212
   1.97131  0.91366  0.00404 -1.01964  0.017239  0.002952 -0.000397     5.841
   1.98653  0.92887  0.00415 -1.01780  0.016196  0.002990 -0.000397     5.418
   2.00124  0.94358  0.00401 -1.01592  0.014984  0.003027 -0.000380     4.951
   2.01526  0.95760  0.00361 -1.01412  0.013634  0.003060 -0.000302     4.455
   2.02837  0.97069  0.00296 -1.01254  0.012189  0.003089 -0.000081     3.946
   2.04040  0.98268  0.00205 -1.01209  0.010717  0.003098  0.000374     3.460
   2.05125  0.99348  0.00090 -1.01453  0.009318  0.003062  0.001088     3.043
   2.05783  1.00000  0.00000 -1.01193  0.009956  0.003106  0.000755     3.206
   2.05783  1.00010 -0.00002  1.01193  0.102813  0.016821  0.000000     6.112
   2.06446  1.00660 -0.00133  1.00788  0.097059  0.017359  0.000000     5.591
   2.07221  1.01424 -0.00262  1.00338  0.094168  0.017945  0.000000     5.248
   2.08127  1.02319 -0.00398  0.99794  0.091256  0.018648  0.000000     4.893
   2.09186  1.03368 -0.00544  0.99127  0.088180  0.019506  0.000000     4.521
   2.10423  1.04596 -0.00699  0.98293  0.084800  0.020576  0.000000     4.121
   2.11869  1.06032 -0.00866  0.97221  0.081049  0.021953  0.000000     3.692
   2.13560  1.07713 -0.01046  0.95952  0.076822  0.023589  0.000000     3.257
   2.15535  1.09679 -0.01238  0.94864  0.071916  0.024992  0.000000     2.878
   2.17845  1.11979 -0.01443  0.93932  0.066452  0.026181  0.000000     2.538
   2.20544  1.14670 -0.01661  0.93247  0.060566  0.027035  0.000000     2.240
   2.23698  1.17816 -0.01891  0.92896  0.054495  0.027458  0.000000     1.985
   2.27386  1.21495 -0.02133  0.92925  0.048558  0.027425  0.000000     1.771
   2.31695  1.25797 -0.02384  0.93321  0.043085  0.026998  0.000000     1.596
   2.36732  1.30828 -0.02643  0.94000  0.038331  0.026318  0.000000     1.456
   2.42619  1.36709 -0.02905  0.94829  0.034412  0.025543  0.000000     1.347
   2.49501  1.43585 -0.03167  0.95684  0.031303  0.024797  0.000000     1.262
   2.57543  1.51624 -0.03423  0.96478  0.028895  0.024144  0.000000     1.197
   2.66944  1.61021 -0.03665  0.97170  0.027057  0.023603  0.000000     1.146
   2.77931  1.72006 -0.03885  0.97752  0.025667  0.023167  0.000000     1.108
   2.90773  1.84846 -0.04072  0.98230  0.024625  0.022819  0.000000     1.079
   3.05782  1.99855 -0.04213  0.98817  0.023696  0.022406  0.000000     1.058
