#    s        x        y     Ue/Vinf    Dstar     Theta      Cf       H
   0.00000  1.00000  0.00000  1.02203  0.100954  0.015500 -0.000073     6.513
   0.00668  0.99360  0.00192  1.02377  0.097742  0.015279 -0.000074     6.397
   0.01807  0.98272  0.00530  1.02720  0.094729  0.014857 -0.000077     6.376
   0.03106  0.97032  0.00914  1.03133  0.091511  0.014367 -0.000080     6.370
   0.04516  0.95680  0.01317  1.03610  0.088303  0.013822 -0.000083     6.389
   0.06006  0.94246  0.01720  1.04149  0.085214  0.013232 -0.000087     6.440
   0.07565  0.92739  0.02118  1.04752  0.082274  0.012601 -0.000092     6.529
   0.09186  0.91167  0.02516  1.05423  0.079435  0.011929 -0.000097     6.659
   0.10852  0.89549  0.02915  1.06161  0.076646  0.011223 -0.000103     6.829
   0.12544  0.87905  0.03313  1.06967  0.073911  0.010491 -0.000110     7.045
   0.14250  0.86245  0.03708  1.07842  0.071233  0.009736 -0.000118     7.317
   0.15964  0.84577  0.04099  1.08794  0.068611  0.008958 -0.000128     7.659
   0.17681  0.82904  0.04484  1.09831  0.066042  0.008157 -0.000140     8.096
   0.19398  0.81229  0.04864  1.10967  0.063517  0.007333 -0.000155     8.662
   0.21115  0.79553  0.05238  1.12221  0.061029  0.006478 -0.000175     9.421
   0.22833  0.77875  0.05606  1.13633  0.058548  0.005580 -0.000202    10.493
   0.24546  0.76200  0.05967  1.15264  0.056038  0.004617 -0.000244    12.138
   0.26249  0.74535  0.06319  1.17200  0.053470  0.003563 -0.000302    15.005
   0.27941  0.72877  0.06660  1.19732  0.050711  0.002300 -0.000315    22.053
   0.29629  0.71222  0.06990  1.20602  0.048461  0.001912 -0.000593    25.341
   0.31313  0.69568  0.07308  1.20609  0.046351  0.001913 -0.000593    24.231
   0.32994  0.67915  0.07616  1.20613  0.044136  0.001915 -0.000594    23.051
   0.34670  0.66266  0.07911  1.20615  0.041846  0.001918 -0.000594    21.823
   0.36339  0.64620  0.08193  1.20615  0.039524  0.001921 -0.000595    20.578
   0.38005  0.62976  0.08462  1.20616  0.037190  0.001924 -0.000595    19.331
   0.39672  0.61329  0.08718  1.20618  0.034858  0.001927 -0.000596    18.091
   0.41338  0.59681  0.08962  1.20620  0.032526  0.001929 -0.000597    16.858
   0.42997  0.58038  0.09191  1.20625  0.030210  0.001931 -0.000599    15.642
   0.44649  0.56400  0.09406  1.20634  0.027944  0.001932 -0.000602    14.462
   0.46301  0.54760  0.09605  1.20650  0.025733  0.001932 -0.000606    13.322
   0.47954  0.53117  0.09790  1.20675  0.023569  0.001929 -0.000611    12.217
   0.49603  0.51477  0.09961  1.20711  0.021454  0.001925 -0.000618    11.147
   0.51242  0.49845  0.10115  1.20764  0.019426  0.001918 -0.000628    10.130
   0.52875  0.48218  0.10252  1.20840  0.017504  0.001907 -0.000641     9.178
   0.54509  0.46588  0.10371  1.20947  0.015677  0.001893 -0.000659     8.283
   0.56144  0.44957  0.10475  1.21095  0.013952  0.001874 -0.000683     7.445
   0.57774  0.43329  0.10561  1.21294  0.012338  0.001850 -0.000717     6.669
   0.59394  0.41711  0.10630  1.21563  0.010848  0.001820 -0.000763     5.959
   0.61007  0.40098  0.10679  1.21921  0.009514  0.001784 -0.000797     5.333
   0.62617  0.38489  0.10708  1.22388  0.008317  0.001741 -0.000764     4.778
   0.64227  0.36879  0.10718  1.22979  0.007280  0.001690 -0.000566     4.307
   0.65836  0.35270  0.10708  1.23679  0.006369  0.001635 -0.000108     3.896
   0.67432  0.33674  0.10680  1.24511  0.005573  0.001572  0.000656     3.545
   0.69010  0.32097  0.10629  1.25449  0.004942  0.001504  0.001591     3.286
   0.70583  0.30526  0.10554  1.26423  0.004454  0.001435  0.002553     3.105
   0.72167  0.28945  0.10454  1.27370  0.004073  0.001367  0.003467     2.979
   0.73747  0.27369  0.10335  1.28321  0.003711  0.001299  0.004590     2.856
   0.75302  0.25820  0.10195  1.29176  0.003400  0.001235  0.005784     2.754
   0.76841  0.24291  0.10027  1.29847  0.003155  0.001176  0.006846     2.683
   0.78386  0.22758  0.09831  1.30266  0.002993  0.001126  0.007458     2.658
   0.79934  0.21226  0.09610  1.30682  0.002815  0.001074  0.008318     2.620
   0.81467  0.19713  0.09366  1.30981  0.002649  0.001024  0.009206     2.587
   0.82983  0.18221  0.09095  1.31125  0.002504  0.000976  0.009997     2.565
   0.84493  0.16741  0.08797  1.31119  0.002383  0.000931  0.010580     2.558
   0.85995  0.15275  0.08473  1.31084  0.002255  0.000885  0.011297     2.548
   0.87475  0.13836  0.08125  1.31005  0.002115  0.000836  0.012290     2.529
   0.88915  0.12444  0.07757  1.30792  0.001974  0.000788  0.013503     2.505
   0.90314  0.11101  0.07364  1.30332  0.001851  0.000743  0.014547     2.492
   0.91683  0.09797  0.06946  1.29648  0.001763  0.000700  0.014796     2.517
   0.92993  0.08560  0.06517  1.29206  0.001618  0.000650  0.016508     2.491
   0.94206  0.07425  0.06087  1.28476  0.001460  0.000600  0.019339     2.433
   0.95332  0.06387  0.05649  1.26936  0.001376  0.000563  0.020047     2.444
   0.96371  0.05444  0.05215  1.25470  0.001301  0.000526  0.020267     2.476
   0.97301  0.04611  0.04801  1.24353  0.001189  0.000482  0.022248     2.464
   0.98119  0.03891  0.04412  1.23015  0.001079  0.000442  0.024790     2.443
   0.98837  0.03273  0.04046  1.21284  0.000980  0.000405  0.027621     2.418
   0.99470  0.02743  0.03701  1.19094  0.000900  0.000374  0.029779     2.409
   1.00030  0.02288  0.03375  1.16601  0.000818  0.000344  0.033068     2.379
   1.00527  0.01898  0.03066  1.13506  0.000758  0.000319  0.034818     2.376
   1.00973  0.01561  0.02774  1.10179  0.000696  0.000295  0.037317     2.362
   1.01375  0.01272  0.02495  1.06253  0.000634  0.000272  0.040873     2.327
   1.01739  0.01024  0.02228  1.01599  0.000598  0.000255  0.040555     2.349
   1.02073  0.00811  0.01971  0.96714  0.000538  0.000234  0.045026     2.298
   1.02380  0.00630  0.01724  0.90478  0.000507  0.000221  0.044670     2.299
   1.02664  0.00476  0.01485  0.83797  0.000472  0.000207  0.045242     2.281
   1.02926  0.00350  0.01255  0.76306  0.000444  0.000196  0.044074     2.272
   1.03171  0.00246  0.01033  0.68115  0.000420  0.000186  0.042423     2.252
   1.03400  0.00163  0.00819  0.59356  0.000406  0.000180  0.038033     2.257
   1.03618  0.00098  0.00612  0.50475  0.000385  0.000171  0.033967     2.260
   1.03826  0.00048  0.00410  0.40717  0.000362  0.000162  0.029805     2.237
   1.04024  0.00015  0.00214  0.30193  0.000344  0.000152  0.022667     2.263
   1.04215  0.00001  0.00024  0.18296  0.000306  0.000137  0.015891     2.234
   1.04400  0.00012 -0.00161  0.03950  0.000293  0.000132  0.003585     2.230
   1.04587  0.00052 -0.00343 -0.11262  0.000293  0.000132  0.010246     2.230
   1.04780  0.00123 -0.00524 -0.26611  0.000300  0.000134  0.023575     2.234
   1.04986  0.00223 -0.00703 -0.39651  0.000340  0.000150  0.029863     2.274
   1.05205  0.00354 -0.00879 -0.51573  0.000354  0.000159  0.038697     2.234
   1.05438  0.00514 -0.01048 -0.60534  0.000420  0.000180  0.034988     2.331
   1.05689  0.00705 -0.01212 -0.67205  0.000467  0.000203  0.035886     2.303
   1.05960  0.00924 -0.01371 -0.72424  0.000535  0.000228  0.032349     2.347
   1.06254  0.01171 -0.01530 -0.76706  0.000590  0.000252  0.031276     2.340
   1.06576  0.01450 -0.01689 -0.80564  0.000646  0.000276  0.029902     2.344
   1.06931  0.01766 -0.01852 -0.84008  0.000705  0.000300  0.028332     2.353
   1.07328  0.02125 -0.02021 -0.86958  0.000774  0.000327  0.026233     2.371
   1.07773  0.02534 -0.02197 -0.89989  0.000824  0.000350  0.025998     2.352
   1.08275  0.03002 -0.02380 -0.92991  0.000883  0.000375  0.025001     2.355
   1.08845  0.03539 -0.02569 -0.95533  0.000966  0.000406  0.022826     2.383
   1.09493  0.04158 -0.02763 -0.97952  0.001041  0.000437  0.021735     2.383
   1.10237  0.04875 -0.02960 -0.99873  0.001150  0.000476  0.019372     2.417
   1.11095  0.05710 -0.03158 -1.01336  0.001274  0.000521  0.017237     2.446
   1.12083  0.06678 -0.03358 -1.02408  0.001416  0.000573  0.015260     2.472
   1.13204  0.07781 -0.03556 -1.03289  0.001555  0.000627  0.013862     2.482
   1.14448  0.09010 -0.03747 -1.04075  0.001693  0.000682  0.012790     2.485
   1.15809  0.10359 -0.03926 -1.04624  0.001854  0.000741  0.011505     2.504
   1.17266  0.11806 -0.04096 -1.05140  0.001995  0.000797  0.010760     2.503
   1.18781  0.13314 -0.04249 -1.05709  0.002115  0.000849  0.010333     2.491
   1.20335  0.14862 -0.04385 -1.06215  0.002242  0.000900  0.009795     2.491
   1.21923  0.16445 -0.04503 -1.06645  0.002370  0.000950  0.009264     2.495
   1.23540  0.18059 -0.04604 -1.06936  0.002512  0.001001  0.008632     2.509
   1.25175  0.19691 -0.04691 -1.07273  0.002622  0.001047  0.008352     2.503
   1.26813  0.21328 -0.04763 -1.07587  0.002730  0.001092  0.008063     2.501
   1.28457  0.22971 -0.04819 -1.07851  0.002843  0.001135  0.007738     2.504
   1.30115  0.24629 -0.04860 -1.08071  0.002957  0.001179  0.007415     2.509
   1.31783  0.26296 -0.04890 -1.08220  0.003080  0.001223  0.007050     2.519
   1.33448  0.27961 -0.04908 -1.08442  0.003165  0.001261  0.006935     2.511
   1.35110  0.29624 -0.04912 -1.08593  0.003272  0.001301  0.006680     2.516
   1.36778  0.31291 -0.04903 -1.08704  0.003384  0.001341  0.006416     2.523
   1.38450  0.32963 -0.04882 -1.08804  0.003488  0.001380  0.006199     2.528
   1.40120  0.34633 -0.04849 -1.08879  0.003593  0.001418  0.005987     2.533
   1.41786  0.36298 -0.04803 -1.08907  0.003708  0.001458  0.005738     2.543
   1.43449  0.37961 -0.04745 -1.08886  0.003832  0.001499  0.005465     2.557
   1.45114  0.39623 -0.04673 -1.08822  0.003963  0.001540  0.005186     2.574
   1.46777  0.41285 -0.04588 -1.08679  0.004119  0.001585  0.004840     2.599
   1.48439  0.42943 -0.04489 -1.08515  0.004270  0.001629  0.004544     2.622
   1.50097  0.44597 -0.04378 -1.08261  0.004459  0.001678  0.004159     2.658
   1.51751  0.46247 -0.04253 -1.07940  0.004673  0.001729  0.003748     2.703
   1.53401  0.47892 -0.04112 -1.07531  0.004936  0.001786  0.003270     2.764
   1.55050  0.49532 -0.03957 -1.07040  0.005258  0.001847  0.002738     2.847
   1.56702  0.51176 -0.03785 -1.06478  0.005655  0.001913  0.002162     2.956
   1.58368  0.52831 -0.03597 -1.05870  0.006145  0.001983  0.001565     3.099
   1.60055  0.54506 -0.03395 -1.05268  0.006704  0.002052  0.001027     3.267
   1.61761  0.56199 -0.03181 -1.04703  0.007316  0.002119  0.000578     3.453
   1.63483  0.57906 -0.02959 -1.04186  0.007976  0.002181  0.000221     3.657
   1.65218  0.59626 -0.02732 -1.03721  0.008662  0.002239 -0.000040     3.869
   1.66962  0.61355 -0.02500 -1.03300  0.009368  0.002292 -0.000222     4.086
   1.68712  0.63090 -0.02268 -1.02915  0.010067  0.002344 -0.000336     4.295
   1.70462  0.64824 -0.02037 -1.02561  0.010751  0.002393 -0.000403     4.493
   1.72205  0.66552 -0.01809 -1.02238  0.011411  0.002440 -0.000439     4.677
   1.73939  0.68272 -0.01585 -1.01943  0.012042  0.002484 -0.000455     4.848
   1.75663  0.69982 -0.01367 -1.01672  0.012626  0.002526 -0.000459     4.998
   1.77378  0.71684 -0.01156 -1.01420  0.013150  0.002567 -0.000457     5.122
   1.79085  0.73379 -0.00953 -1.01182  0.013608  0.002607 -0.000451     5.220
   1.80784  0.75067 -0.00760 -1.00956  0.013993  0.002646 -0.000444     5.289
   1.82474  0.76746 -0.00576 -1.00739  0.014296  0.002684 -0.000438     5.326
   1.84154  0.78418 -0.00404 -1.00527  0.014508  0.002722 -0.000431     5.330
   1.85823  0.80079 -0.00245 -1.00319  0.014619  0.002760 -0.000423     5.297
   1.87481  0.81731 -0.00100 -1.00113  0.014619  0.002798 -0.000416     5.225
   1.89126  0.83371  0.00030 -0.99906  0.014496  0.002836 -0.000407     5.111
   1.90759  0.85000  0.00143 -0.99698  0.014246  0.002875 -0.000393     4.955
   1.92381  0.86619  0.00238 -0.99488  0.013858  0.002914 -0.000369     4.756
   1.93987  0.88223  0.00314 -0.99278  0.013340  0.002952 -0.000322     4.519
   1.95573  0.89808  0.00370 -0.99071  0.012686  0.002989 -0.000234     4.244
   1.97131  0.91366  0.00404 -0.98871  0.011902  0.003025 -0.000073     3.934
   1.98653  0.92887  0.00415 -0.98723  0.010986  0.003052  0.000208     3.600
   2.00124  0.94358  0.00401 -0.98717  0.009963  0.003056  0.000657     3.260
   2.01526  0.95760  0.00361 -0.98982  0.008864  0.003021  0.001325     2.934
   2.02837  0.97069  0.00296 -0.99679  0.007720  0.002933  0.002282     2.632
   2.04040  0.98268  0.00205 -1.00994  0.006568  0.002783  0.003631     2.360
   2.05125  0.99348  0.00090 -1.03184  0.005428  0.002564  0.005591     2.117
   2.05783  1.00000  0.00000 -1.02203  0.006017  0.002684  0.004483     2.242
   2.05783  1.00010 -0.00002  1.02203  0.106971  0.018184  0.000000     5.883
   2.06446  1.00660 -0.00133  1.01836  0.101858  0.018692  0.000000     5.449
   2.07221  1.01424 -0.00261  1.01431  0.099332  0.019244  0.000000     5.162
   2.08127  1.02320 -0.00395  1.00944  0.096782  0.019905  0.000000     4.862
   2.09186  1.03369 -0.00536  1.00351  0.094073  0.020706  0.000000     4.543
   2.10423  1.04597 -0.00687  0.99618  0.091070  0.021696  0.000000     4.198
   2.11869  1.06034 -0.00848  0.98690  0.087693  0.022951  0.000000     3.821
   2.13560  1.07716 -0.01019  0.97506  0.083890  0.024562  0.000000     3.415
   2.15535  1.09684 -0.01200  0.96374  0.079433  0.026107  0.000000     3.043
   2.17845  1.11985 -0.01390  0.95374  0.074331  0.027469  0.000000     2.706
   2.20544  1.14677 -0.01589  0.94545  0.068687  0.028583  0.000000     2.403
   2.23698  1.17825 -0.01795  0.93970  0.062670  0.029337  0.000000     2.136
   2.27386  1.21506 -0.02006  0.93716  0.056542  0.029657  0.000000     1.907
   2.31695  1.25810 -0.02218  0.93811  0.050629  0.029544  0.000000     1.714
   2.36732  1.30843 -0.02427  0.94220  0.045242  0.029080  0.000000     1.556
   2.42619  1.36727 -0.02627  0.94853  0.040599  0.028408  0.000000     1.429
   2.49501  1.43605 -0.02810  0.95591  0.036780  0.027674  0.000000     1.329
   2.57543  1.51646 -0.02967  0.96332  0.033740  0.026980  0.000000     1.251
   2.66944  1.61046 -0.03087  0.97010  0.031370  0.026378  0.000000     1.189
   2.77931  1.72033 -0.03156  0.97597  0.029546  0.025879  0.000000     1.142
   2.90773  1.84875 -0.03157  0.98090  0.028157  0.025475  0.000000     1.105
   3.05782  1.99884 -0.03068  0.98766  0.026865  0.024940  0.000000     1.077
