#    s        x        y     Ue/Vinf    Dstar     Theta      Cf       H
   0.00000  1.00000  0.00000  1.01451  0.082718  0.011623 -0.000094     7.116
   0.00668  0.99360  0.00192  1.01693  0.079264  0.011376 -0.000096     6.968
   0.01807  0.98272  0.00530  1.02179  0.076525  0.010899 -0.000101     7.022
   0.03106  0.97032  0.00914  1.02774  0.073704  0.010340 -0.000106     7.128
   0.04516  0.95680  0.01317  1.03471  0.070979  0.009717 -0.000113     7.305
   0.06006  0.94246  0.01720  1.04269  0.068425  0.009037 -0.000121     7.571
   0.07565  0.92739  0.02118  1.05177  0.066049  0.008306 -0.000132     7.952
   0.09186  0.91167  0.02516  1.06205  0.063789  0.007520 -0.000145     8.482
   0.10852  0.89549  0.02915  1.07366  0.061571  0.006685 -0.000162     9.210
   0.12544  0.87905  0.03313  1.08683  0.059373  0.005796 -0.000187    10.244
   0.14250  0.86245  0.03708  1.10204  0.057156  0.004837 -0.000223    11.816
   0.15964  0.84577  0.04099  1.12004  0.054872  0.003786 -0.000276    14.494
   0.17681  0.82904  0.04484  1.14310  0.052383  0.002543 -0.000287    20.596
   0.19398  0.81229  0.04864  1.15292  0.050293  0.002068 -0.000525    24.324
   0.21115  0.79553  0.05238  1.15302  0.048384  0.002066 -0.000526    23.418
   0.22833  0.77875  0.05606  1.15309  0.046321  0.002066 -0.000527    22.417
   0.24546  0.76200  0.05967  1.15314  0.044143  0.002068 -0.000527    21.347
   0.26249  0.74535  0.06319  1.15316  0.041900  0.002070 -0.000528    20.238
   0.27941  0.72877  0.06660  1.15318  0.039631  0.002073 -0.000528    19.117
   0.29629  0.71222  0.06990  1.15319  0.037346  0.002076 -0.000529    17.991
   0.31313  0.69568  0.07308  1.15322  0.035062  0.002078 -0.000530    16.871
   0.32994  0.67915  0.07616  1.15326  0.032794  0.002080 -0.000532    15.765
   0.34670  0.66266  0.07911  1.15333  0.030541  0.002081 -0.000534    14.674
   0.36339  0.64620  0.08193  1.15344  0.028330  0.002081 -0.000537    13.611
   0.38005  0.62976  0.08462  1.15362  0.026174  0.002080 -0.000541    12.585
   0.39672  0.61329  0.08718  1.15390  0.024078  0.002076 -0.000546    11.596
   0.41338  0.59681  0.08962  1.15428  0.022031  0.002071 -0.000553    10.639
   0.42997  0.58038  0.09191  1.15481  0.020052  0.002063 -0.000562     9.721
   0.44649  0.56400  0.09406  1.15555  0.018173  0.002051 -0.000574     8.859
   0.46301  0.54760  0.09605  1.15656  0.016390  0.002036 -0.000589     8.049
   0.47954  0.53117  0.09790  1.15793  0.014703  0.002017 -0.000611     7.291
   0.49603  0.51477  0.09961  1.15973  0.013105  0.001993 -0.000640     6.576
   0.51242  0.49845  0.10115  1.16212  0.011639  0.001963 -0.000677     5.929
   0.52875  0.48218  0.10252  1.16523  0.010322  0.001928 -0.000705     5.354
   0.54509  0.46588  0.10371  1.16921  0.009122  0.001886 -0.000686     4.838
   0.56144  0.44957  0.10475  1.17419  0.008057  0.001837 -0.000546     4.386
   0.57774  0.43329  0.10561  1.18006  0.007127  0.001784 -0.000224     3.996
   0.59394  0.41711  0.10630  1.18689  0.006323  0.001725  0.000301     3.667
   0.61007  0.40098  0.10679  1.19469  0.005656  0.001660  0.000976     3.408
   0.62617  0.38489  0.10708  1.20314  0.005104  0.001591  0.001746     3.207
   0.64227  0.36879  0.10718  1.21179  0.004647  0.001522  0.002567     3.052
   0.65836  0.35270  0.10708  1.22020  0.004265  0.001455  0.003407     2.932
   0.67432  0.33674  0.10680  1.22821  0.003926  0.001389  0.004328     2.826
   0.69010  0.32097  0.10629  1.23535  0.003632  0.001326  0.005283     2.738
   0.70583  0.30526  0.10554  1.24051  0.003424  0.001272  0.005957     2.692
   0.72167  0.28945  0.10454  1.24470  0.003245  0.001220  0.006563     2.659
   0.73747  0.27369  0.10335  1.24880  0.003046  0.001167  0.007420     2.611
   0.75302  0.25820  0.10195  1.25211  0.002840  0.001113  0.008536     2.552
   0.76841  0.24291  0.10027  1.25231  0.002699  0.001069  0.009251     2.525
   0.78386  0.22758  0.09831  1.25052  0.002594  0.001029  0.009648     2.521
   0.79934  0.21226  0.09610  1.24894  0.002462  0.000985  0.010391     2.500
   0.81467  0.19713  0.09366  1.24583  0.002341  0.000943  0.011099     2.483
   0.82983  0.18221  0.09095  1.24136  0.002223  0.000901  0.011851     2.466
   0.84493  0.16741  0.08797  1.23471  0.002134  0.000863  0.012215     2.472
   0.85995  0.15275  0.08473  1.22812  0.002025  0.000821  0.012887     2.465
   0.87475  0.13836  0.08125  1.22040  0.001913  0.000778  0.013665     2.458
   0.88915  0.12444  0.07757  1.21156  0.001779  0.000733  0.015035     2.428
   0.90314  0.11101  0.07364  1.19843  0.001676  0.000693  0.015925     2.420
   0.91683  0.09797  0.06946  1.18285  0.001601  0.000654  0.016007     2.446
   0.92993  0.08560  0.06517  1.16934  0.001477  0.000607  0.017437     2.431
   0.94206  0.07425  0.06087  1.15219  0.001329  0.000561  0.020257     2.371
   0.95332  0.06387  0.05649  1.12528  0.001259  0.000528  0.020621     2.384
   0.96371  0.05444  0.05215  1.09961  0.001188  0.000493  0.020796     2.410
   0.97301  0.04611  0.04801  1.07633  0.001083  0.000452  0.022658     2.396
   0.98119  0.03891  0.04412  1.04934  0.000988  0.000415  0.024584     2.380
   0.98837  0.03273  0.04046  1.01793  0.000898  0.000381  0.026887     2.355
   0.99470  0.02743  0.03701  0.98120  0.000832  0.000353  0.028023     2.354
   1.00030  0.02288  0.03375  0.94173  0.000759  0.000326  0.030139     2.330
   1.00527  0.01898  0.03066  0.89740  0.000709  0.000302  0.030337     2.345
   1.00973  0.01561  0.02774  0.84989  0.000637  0.000277  0.033522     2.296
   1.01375  0.01272  0.02495  0.79073  0.000598  0.000261  0.033276     2.293
   1.01739  0.01024  0.02228  0.73061  0.000562  0.000243  0.032182     2.310
   1.02073  0.00811  0.01971  0.66366  0.000507  0.000225  0.034381     2.248
   1.02380  0.00630  0.01724  0.58913  0.000495  0.000213  0.029127     2.323
   1.02664  0.00476  0.01485  0.50910  0.000429  0.000194  0.032352     2.205
   1.02926  0.00350  0.01255  0.41452  0.000439  0.000191  0.023588     2.300
   1.03171  0.00246  0.01033  0.32207  0.000387  0.000176  0.022754     2.201
   1.03400  0.00163  0.00819  0.21779  0.000401  0.000177  0.014012     2.266
   1.03618  0.00098  0.00612  0.11546  0.000350  0.000157  0.008791     2.230
   1.03826  0.00048  0.00410 -0.00367  0.000350  0.000157  0.000287     2.230
   1.04024  0.00015  0.00214 -0.13276  0.000318  0.000143  0.011128     2.230
   1.04215  0.00001  0.00024 -0.27233  0.000306  0.000138  0.023905     2.222
   1.04400  0.00012 -0.00161 -0.44168  0.000271  0.000123  0.044801     2.197
   1.04587  0.00052 -0.00343 -0.58923  0.000305  0.000133  0.048256     2.300
   1.04780  0.00123 -0.00524 -0.72558  0.000306  0.000138  0.063907     2.217
   1.04986  0.00223 -0.00703 -0.83746  0.000354  0.000152  0.057780     2.325
   1.05205  0.00354 -0.00879 -0.92245  0.000388  0.000169  0.059532     2.300
   1.05438  0.00514 -0.01048 -0.98563  0.000446  0.000189  0.052335     2.358
   1.05689  0.00705 -0.01212 -1.02761  0.000510  0.000213  0.046229     2.390
   1.05960  0.00924 -0.01371 -1.05134  0.000596  0.000243  0.038074     2.450
   1.06254  0.01171 -0.01530 -1.06849  0.000667  0.000272  0.034450     2.453
   1.06576  0.01450 -0.01689 -1.08424  0.000733  0.000299  0.031981     2.448
   1.06931  0.01766 -0.01852 -1.09731  0.000807  0.000328  0.029011     2.460
   1.07328  0.02125 -0.02021 -1.11193  0.000865  0.000354  0.028047     2.440
   1.07773  0.02534 -0.02197 -1.12392  0.000945  0.000384  0.025444     2.458
   1.08275  0.03002 -0.02380 -1.13906  0.000997  0.000411  0.025218     2.428
   1.08845  0.03539 -0.02569 -1.15074  0.001088  0.000443  0.022679     2.456
   1.09493  0.04158 -0.02763 -1.16100  0.001178  0.000478  0.020902     2.466
   1.10237  0.04875 -0.02960 -1.16677  0.001304  0.000520  0.018198     2.506
   1.11095  0.05710 -0.03158 -1.16869  0.001450  0.000569  0.015717     2.545
   1.12083  0.06678 -0.03358 -1.16779  0.001610  0.000625  0.013631     2.578
   1.13204  0.07781 -0.03556 -1.16533  0.001777  0.000684  0.012026     2.600
   1.14448  0.09010 -0.03747 -1.16216  0.001947  0.000745  0.010782     2.613
   1.15809  0.10359 -0.03926 -1.15831  0.002124  0.000809  0.009682     2.628
   1.17266  0.11806 -0.04096 -1.15441  0.002298  0.000872  0.008841     2.635
   1.18781  0.13314 -0.04249 -1.15276  0.002420  0.000928  0.008652     2.608
   1.20335  0.14862 -0.04385 -1.15032  0.002580  0.000986  0.008021     2.617
   1.21923  0.16445 -0.04503 -1.14860  0.002715  0.001040  0.007659     2.611
   1.23540  0.18059 -0.04604 -1.14592  0.002882  0.001097  0.007062     2.628
   1.25175  0.19691 -0.04691 -1.14440  0.003002  0.001147  0.006854     2.617
   1.26813  0.21328 -0.04763 -1.14244  0.003143  0.001198  0.006488     2.623
   1.28457  0.22971 -0.04819 -1.14085  0.003267  0.001246  0.006245     2.622
   1.30115  0.24629 -0.04860 -1.13853  0.003419  0.001297  0.005852     2.637
   1.31783  0.26296 -0.04890 -1.13663  0.003546  0.001344  0.005619     2.639
   1.33448  0.27961 -0.04908 -1.13467  0.003676  0.001390  0.005380     2.644
   1.35110  0.29624 -0.04912 -1.13250  0.003812  0.001437  0.005121     2.653
   1.36778  0.31291 -0.04903 -1.13002  0.003959  0.001484  0.004833     2.668
   1.38450  0.32963 -0.04882 -1.12730  0.004113  0.001532  0.004545     2.685
   1.40120  0.34633 -0.04849 -1.12443  0.004269  0.001580  0.004275     2.703
   1.41786  0.36298 -0.04803 -1.12099  0.004454  0.001630  0.003935     2.733
   1.43449  0.37961 -0.04745 -1.11717  0.004655  0.001682  0.003585     2.768
   1.45114  0.39623 -0.04673 -1.11272  0.004897  0.001737  0.003174     2.819
   1.46777  0.41285 -0.04588 -1.10765  0.005185  0.001796  0.002713     2.887
   1.48439  0.42943 -0.04489 -1.10228  0.005508  0.001857  0.002258     2.967
   1.50097  0.44597 -0.04378 -1.09643  0.005909  0.001921  0.001752     3.077
   1.51751  0.46247 -0.04253 -1.09042  0.006392  0.001986  0.001236     3.218
   1.53401  0.47892 -0.04112 -1.08449  0.006984  0.002051  0.000723     3.405
   1.55050  0.49532 -0.03957 -1.07899  0.007711  0.002113  0.000250     3.649
   1.56702  0.51176 -0.03785 -1.07419  0.008584  0.002169 -0.000133     3.958
   1.58368  0.52831 -0.03597 -1.07005  0.009616  0.002219 -0.000388     4.333
   1.60055  0.54506 -0.03395 -1.06645  0.010766  0.002265 -0.000508     4.753
   1.61761  0.56199 -0.03181 -1.06346  0.012015  0.002306 -0.000536     5.211
   1.63483  0.57906 -0.02959 -1.06102  0.013334  0.002342 -0.000526     5.694
   1.65218  0.59626 -0.02732 -1.05903  0.014694  0.002373 -0.000502     6.192
   1.66962  0.61355 -0.02500 -1.05737  0.016077  0.002401 -0.000481     6.697
   1.68712  0.63090 -0.02268 -1.05598  0.017454  0.002425 -0.000465     7.197
   1.70462  0.64824 -0.02037 -1.05478  0.018805  0.002448 -0.000452     7.682
   1.72205  0.66552 -0.01809 -1.05374  0.020118  0.002468 -0.000442     8.150
   1.73939  0.68272 -0.01585 -1.05280  0.021374  0.002488 -0.000433     8.592
   1.75663  0.69982 -0.01367 -1.05195  0.022563  0.002506 -0.000426     9.002
   1.77378  0.71684 -0.01156 -1.05115  0.023663  0.002524 -0.000420     9.373
   1.79085  0.73379 -0.00953 -1.05038  0.024669  0.002543 -0.000415     9.702
   1.80784  0.75067 -0.00760 -1.04963  0.025574  0.002561 -0.000410     9.986
   1.82474  0.76746 -0.00576 -1.04889  0.026362  0.002580 -0.000405    10.218
   1.84154  0.78418 -0.00404 -1.04814  0.027027  0.002599 -0.000401    10.397
   1.85823  0.80079 -0.00245 -1.04738  0.027555  0.002620 -0.000397    10.517
   1.87481  0.81731 -0.00100 -1.04660  0.027936  0.002642 -0.000393    10.574
   1.89126  0.83371  0.00030 -1.04577  0.028155  0.002665 -0.000389    10.564
   1.90759  0.85000  0.00143 -1.04491  0.028200  0.002690 -0.000386    10.483
   1.92381  0.86619  0.00238 -1.04399  0.028064  0.002717 -0.000382    10.330
   1.93987  0.88223  0.00314 -1.04300  0.027745  0.002745 -0.000379    10.106
   1.95573  0.89808  0.00370 -1.04195  0.027231  0.002776 -0.000376     9.809
   1.97131  0.91366  0.00404 -1.04081  0.026517  0.002809 -0.000373     9.441
   1.98653  0.92887  0.00415 -1.03959  0.025595  0.002843 -0.000371     9.002
   2.00124  0.94358  0.00401 -1.03828  0.024474  0.002880 -0.000370     8.499
   2.01526  0.95760  0.00361 -1.03690  0.023185  0.002917 -0.000370     7.949
   2.02837  0.97069  0.00296 -1.03546  0.021764  0.002954 -0.000372     7.368
   2.04040  0.98268  0.00205 -1.03401  0.020280  0.002989 -0.000376     6.784
   2.05125  0.99348  0.00090 -1.02232  0.018998  0.003283 -0.000221     5.787
   2.05783  1.00000  0.00000 -1.01451  0.019904  0.003483 -0.000217     5.714
   2.05783  1.00010 -0.00002  1.01451  0.102622  0.015107  0.000000     6.793
   2.06446  1.00660 -0.00133  1.00946  0.096182  0.015757  0.000000     6.104
   2.07221  1.01424 -0.00264  1.00375  0.092957  0.016476  0.000000     5.642
   2.08127  1.02319 -0.00402  0.99686  0.089710  0.017339  0.000000     5.174
   2.09186  1.03367 -0.00551  0.98842  0.086286  0.018392  0.000000     4.692
   2.10423  1.04594 -0.00711  0.97785  0.082530  0.019709  0.000000     4.187
   2.11869  1.06030 -0.00884  0.96418  0.078378  0.021423  0.000000     3.659
   2.13560  1.07710 -0.01071  0.94888  0.073669  0.023357  0.000000     3.154
   2.15535  1.09675 -0.01274  0.93608  0.068229  0.024979  0.000000     2.731
   2.17845  1.11974 -0.01493  0.92591  0.062226  0.026253  0.000000     2.370
   2.20544  1.14662 -0.01729  0.91949  0.055882  0.027033  0.000000     2.067
   2.23698  1.17807 -0.01983  0.91768  0.049532  0.027244  0.000000     1.818
   2.27386  1.21484 -0.02254  0.92063  0.043568  0.026921  0.000000     1.618
   2.31695  1.25784 -0.02543  0.92758  0.038329  0.026214  0.000000     1.462
   2.36732  1.30812 -0.02850  0.93699  0.034002  0.025329  0.000000     1.342
   2.42619  1.36690 -0.03172  0.94717  0.030597  0.024444  0.000000     1.252
   2.49501  1.43563 -0.03509  0.95683  0.028001  0.023658  0.000000     1.184
   2.57543  1.51598 -0.03859  0.96536  0.026056  0.023005  0.000000     1.133
   2.66944  1.60991 -0.04219  0.97255  0.024616  0.022479  0.000000     1.095
   2.77931  1.71972 -0.04584  0.97847  0.023558  0.022063  0.000000     1.068
   2.90773  1.84809 -0.04950  0.98323  0.022786  0.021738  0.000000     1.048
   3.05782  1.99814 -0.05312  0.98845  0.022126  0.021391  0.000000     1.034
