#    s        x        y     Ue/Vinf    Dstar     Theta      Cf       H
   0.00000  1.00000  0.00000  1.01620  0.081729  0.012030 -0.000092     6.794
   0.00668  0.99360  0.00192  1.01863  0.078351  0.011783 -0.000095     6.649
   0.01807  0.98272  0.00530  1.02349  0.075657  0.011307 -0.000099     6.691
   0.03106  0.97032  0.00914  1.02943  0.072880  0.010750 -0.000104     6.780
   0.04516  0.95680  0.01317  1.03640  0.070200  0.010127 -0.000111     6.932
   0.06006  0.94246  0.01720  1.04437  0.067694  0.009450 -0.000118     7.164
   0.07565  0.92739  0.02118  1.05343  0.065370  0.008719 -0.000128     7.497
   0.09186  0.91167  0.02516  1.06369  0.063166  0.007936 -0.000139     7.959
   0.10852  0.89549  0.02915  1.07522  0.061011  0.007105 -0.000155     8.587
   0.12544  0.87905  0.03313  1.08816  0.058887  0.006229 -0.000176     9.454
   0.14250  0.86245  0.03708  1.10302  0.056760  0.005288 -0.000207    10.734
   0.15964  0.84577  0.04099  1.12031  0.054590  0.004270 -0.000255    12.783
   0.17681  0.82904  0.04484  1.14154  0.052286  0.003118 -0.000287    16.767
   0.19398  0.81229  0.04864  1.16295  0.049922  0.002067 -0.000530    24.149
   0.21115  0.79553  0.05238  1.16309  0.048147  0.002064 -0.000531    23.324
   0.22833  0.77875  0.05606  1.16319  0.046190  0.002063 -0.000532    22.386
   0.24546  0.76200  0.05967  1.16325  0.044100  0.002064 -0.000533    21.365
   0.26249  0.74535  0.06319  1.16329  0.041930  0.002066 -0.000533    20.297
   0.27941  0.72877  0.06660  1.16332  0.039724  0.002068 -0.000534    19.210
   0.29629  0.71222  0.06990  1.16335  0.037494  0.002070 -0.000535    18.111
   0.31313  0.69568  0.07308  1.16338  0.035258  0.002072 -0.000536    17.014
   0.32994  0.67915  0.07616  1.16343  0.033027  0.002074 -0.000538    15.924
   0.34670  0.66266  0.07911  1.16351  0.030809  0.002075 -0.000540    14.848
   0.36339  0.64620  0.08193  1.16362  0.028627  0.002075 -0.000543    13.796
   0.38005  0.62976  0.08462  1.16380  0.026491  0.002074 -0.000546    12.776
   0.39672  0.61329  0.08718  1.16406  0.024409  0.002070 -0.000551    11.790
   0.41338  0.59681  0.08962  1.16443  0.022378  0.002065 -0.000558    10.836
   0.42997  0.58038  0.09191  1.16493  0.020402  0.002058 -0.000566     9.916
   0.44649  0.56400  0.09406  1.16563  0.018528  0.002047 -0.000578     9.052
   0.46301  0.54760  0.09605  1.16659  0.016739  0.002033 -0.000593     8.235
   0.47954  0.53117  0.09790  1.16787  0.015044  0.002014 -0.000613     7.469
   0.49603  0.51477  0.09961  1.16957  0.013435  0.001991 -0.000640     6.746
   0.51242  0.49845  0.10115  1.17181  0.011947  0.001964 -0.000676     6.084
   0.52875  0.48218  0.10252  1.17475  0.010607  0.001930 -0.000710     5.496
   0.54509  0.46588  0.10371  1.17853  0.009393  0.001890 -0.000709     4.971
   0.56144  0.44957  0.10475  1.18328  0.008301  0.001843 -0.000609     4.504
   0.57774  0.43329  0.10561  1.18896  0.007331  0.001791 -0.000333     4.093
   0.59394  0.41711  0.10630  1.19555  0.006499  0.001734  0.000143     3.748
   0.61007  0.40098  0.10679  1.20315  0.005808  0.001671  0.000779     3.476
   0.62617  0.38489  0.10708  1.21155  0.005223  0.001604  0.001548     3.257
   0.64227  0.36879  0.10718  1.22017  0.004758  0.001535  0.002330     3.099
   0.65836  0.35270  0.10708  1.22885  0.004350  0.001467  0.003198     2.965
   0.67432  0.33674  0.10680  1.23711  0.003998  0.001401  0.004120     2.854
   0.69010  0.32097  0.10629  1.24465  0.003689  0.001337  0.005103     2.759
   0.70583  0.30526  0.10554  1.25018  0.003475  0.001282  0.005792     2.710
   0.72167  0.28945  0.10454  1.25467  0.003296  0.001231  0.006369     2.678
   0.73747  0.27369  0.10335  1.25956  0.003075  0.001175  0.007359     2.618
   0.75302  0.25820  0.10195  1.26277  0.002883  0.001123  0.008334     2.568
   0.76841  0.24291  0.10027  1.26374  0.002731  0.001077  0.009116     2.536
   0.78386  0.22758  0.09831  1.26240  0.002628  0.001037  0.009483     2.534
   0.79934  0.21226  0.09610  1.26153  0.002491  0.000992  0.010258     2.510
   0.81467  0.19713  0.09366  1.25929  0.002358  0.000948  0.011106     2.486
   0.82983  0.18221  0.09095  1.25489  0.002248  0.000908  0.011732     2.476
   0.84493  0.16741  0.08797  1.24905  0.002153  0.000869  0.012171     2.477
   0.85995  0.15275  0.08473  1.24305  0.002041  0.000827  0.012902     2.468
   0.87475  0.13836  0.08125  1.23562  0.001933  0.000784  0.013594     2.464
   0.88915  0.12444  0.07757  1.22751  0.001803  0.000739  0.014864     2.439
   0.90314  0.11101  0.07364  1.21573  0.001698  0.000698  0.015746     2.432
   0.91683  0.09797  0.06946  1.20180  0.001611  0.000658  0.016133     2.448
   0.92993  0.08560  0.06517  1.18869  0.001493  0.000612  0.017392     2.438
   0.94206  0.07425  0.06087  1.17301  0.001349  0.000566  0.020053     2.385
   0.95332  0.06387  0.05649  1.14845  0.001264  0.000531  0.020993     2.383
   0.96371  0.05444  0.05215  1.12294  0.001201  0.000497  0.020878     2.417
   0.97301  0.04611  0.04801  1.10116  0.001096  0.000456  0.022745     2.403
   0.98119  0.03891  0.04412  1.07596  0.000999  0.000419  0.024755     2.387
   0.98837  0.03273  0.04046  1.04673  0.000912  0.000385  0.026823     2.370
   0.99470  0.02743  0.03701  1.01301  0.000836  0.000355  0.028750     2.355
   1.00030  0.02288  0.03375  0.97459  0.000767  0.000328  0.030698     2.337
   1.00527  0.01898  0.03066  0.93144  0.000711  0.000305  0.031673     2.335
   1.00973  0.01561  0.02774  0.88517  0.000653  0.000282  0.033222     2.321
   1.01375  0.01272  0.02495  0.83292  0.000603  0.000261  0.034264     2.309
   1.01739  0.01024  0.02228  0.77335  0.000554  0.000243  0.035453     2.284
   1.02073  0.00811  0.01971  0.70691  0.000522  0.000227  0.033909     2.297
   1.02380  0.00630  0.01724  0.63367  0.000476  0.000212  0.035021     2.245
   1.02664  0.00476  0.01485  0.55163  0.000463  0.000203  0.030173     2.285
   1.02926  0.00350  0.01255  0.47167  0.000418  0.000184  0.028830     2.276
   1.03171  0.00246  0.01033  0.36756  0.000391  0.000181  0.026524     2.166
   1.03400  0.00163  0.00819  0.26969  0.000434  0.000188  0.015296     2.315
   1.03618  0.00098  0.00612  0.18118  0.000342  0.000153  0.014037     2.235
   1.03826  0.00048  0.00410  0.05351  0.000330  0.000148  0.004322     2.230
   1.04024  0.00015  0.00214 -0.07489  0.000330  0.000148  0.006061     2.230
   1.04215  0.00001  0.00024 -0.21618  0.000298  0.000134  0.019655     2.214
   1.04400  0.00012 -0.00161 -0.36509  0.000297  0.000132  0.032561     2.239
   1.04587  0.00052 -0.00343 -0.52548  0.000283  0.000128  0.050502     2.209
   1.04780  0.00123 -0.00524 -0.65678  0.000326  0.000141  0.049773     2.312
   1.04986  0.00223 -0.00703 -0.76922  0.000342  0.000152  0.059113     2.247
   1.05205  0.00354 -0.00879 -0.86808  0.000381  0.000165  0.056847     2.304
   1.05438  0.00514 -0.01048 -0.93262  0.000442  0.000187  0.049842     2.360
   1.05689  0.00705 -0.01212 -0.97555  0.000508  0.000213  0.044174     2.387
   1.05960  0.00924 -0.01371 -1.00241  0.000589  0.000242  0.037412     2.432
   1.06254  0.01171 -0.01530 -1.02657  0.000644  0.000267  0.035825     2.409
   1.06576  0.01450 -0.01689 -1.04404  0.000725  0.000297  0.031167     2.447
   1.06931  0.01766 -0.01852 -1.06159  0.000783  0.000323  0.029947     2.427
   1.07328  0.02125 -0.02021 -1.07493  0.000867  0.000353  0.026599     2.456
   1.07773  0.02534 -0.02197 -1.09310  0.000908  0.000377  0.027112     2.409
   1.08275  0.03002 -0.02380 -1.10770  0.000993  0.000407  0.024391     2.438
   1.08845  0.03539 -0.02569 -1.12204  0.001065  0.000437  0.023064     2.436
   1.09493  0.04158 -0.02763 -1.13375  0.001160  0.000472  0.020950     2.456
   1.10237  0.04875 -0.02960 -1.14249  0.001271  0.000513  0.018782     2.481
   1.11095  0.05710 -0.03158 -1.14579  0.001424  0.000562  0.015926     2.532
   1.12083  0.06678 -0.03358 -1.14609  0.001583  0.000617  0.013821     2.564
   1.13204  0.07781 -0.03556 -1.14560  0.001737  0.000675  0.012447     2.574
   1.14448  0.09010 -0.03747 -1.14340  0.001913  0.000736  0.010996     2.597
   1.15809  0.10359 -0.03926 -1.14079  0.002084  0.000799  0.009956     2.607
   1.17266  0.11806 -0.04096 -1.13830  0.002247  0.000861  0.009182     2.610
   1.18781  0.13314 -0.04249 -1.13736  0.002377  0.000917  0.008862     2.591
   1.20335  0.14862 -0.04385 -1.13614  0.002524  0.000974  0.008321     2.593
   1.21923  0.16445 -0.04503 -1.13497  0.002667  0.001028  0.007856     2.594
   1.23540  0.18059 -0.04604 -1.13291  0.002831  0.001084  0.007252     2.610
   1.25175  0.19691 -0.04691 -1.13179  0.002954  0.001135  0.006998     2.603
   1.26813  0.21328 -0.04763 -1.13088  0.003074  0.001183  0.006756     2.598
   1.28457  0.22971 -0.04819 -1.12941  0.003214  0.001233  0.006389     2.607
   1.30115  0.24629 -0.04860 -1.12778  0.003353  0.001282  0.006054     2.616
   1.31783  0.26296 -0.04890 -1.12586  0.003496  0.001331  0.005718     2.628
   1.33448  0.27961 -0.04908 -1.12471  0.003602  0.001374  0.005588     2.621
   1.35110  0.29624 -0.04912 -1.12283  0.003741  0.001421  0.005293     2.634
   1.36778  0.31291 -0.04903 -1.12056  0.003892  0.001468  0.004975     2.651
   1.38450  0.32963 -0.04882 -1.11833  0.004033  0.001514  0.004725     2.663
   1.40120  0.34633 -0.04849 -1.11562  0.004193  0.001562  0.004422     2.683
   1.41786  0.36298 -0.04803 -1.11257  0.004365  0.001612  0.004106     2.709
   1.43449  0.37961 -0.04745 -1.10894  0.004565  0.001663  0.003741     2.745
   1.45114  0.39623 -0.04673 -1.10482  0.004790  0.001717  0.003351     2.789
   1.46777  0.41285 -0.04588 -1.09999  0.005065  0.001775  0.002895     2.853
   1.48439  0.42943 -0.04489 -1.09480  0.005373  0.001836  0.002442     2.927
   1.50097  0.44597 -0.04378 -1.08904  0.005758  0.001900  0.001929     3.031
   1.51751  0.46247 -0.04253 -1.08304  0.006218  0.001966  0.001407     3.163
   1.53401  0.47892 -0.04112 -1.07698  0.006796  0.002033  0.000867     3.343
   1.55050  0.49532 -0.03957 -1.07132  0.007491  0.002096  0.000374     3.573
   1.56702  0.51176 -0.03785 -1.06631  0.008335  0.002155 -0.000042     3.869
   1.58368  0.52831 -0.03597 -1.06201  0.009337  0.002206 -0.000334     4.232
   1.60055  0.54506 -0.03395 -1.05824  0.010462  0.002254 -0.000484     4.641
   1.61761  0.56199 -0.03181 -1.05509  0.011686  0.002297 -0.000529     5.088
   1.63483  0.57906 -0.02959 -1.05250  0.012982  0.002334 -0.000526     5.561
   1.65218  0.59626 -0.02732 -1.05039  0.014324  0.002367 -0.000504     6.051
   1.66962  0.61355 -0.02500 -1.04864  0.015693  0.002396 -0.000482     6.549
   1.68712  0.63090 -0.02268 -1.04717  0.017060  0.002422 -0.000465     7.043
   1.70462  0.64824 -0.02037 -1.04591  0.018405  0.002446 -0.000451     7.525
   1.72205  0.66552 -0.01809 -1.04481  0.019713  0.002467 -0.000440     7.989
   1.73939  0.68272 -0.01585 -1.04384  0.020973  0.002488 -0.000431     8.431
   1.75663  0.69982 -0.01367 -1.04295  0.022163  0.002507 -0.000424     8.841
   1.77378  0.71684 -0.01156 -1.04212  0.023274  0.002525 -0.000417     9.216
   1.79085  0.73379 -0.00953 -1.04133  0.024291  0.002544 -0.000412     9.548
   1.80784  0.75067 -0.00760 -1.04057  0.025213  0.002563 -0.000407     9.838
   1.82474  0.76746 -0.00576 -1.03982  0.026022  0.002582 -0.000402    10.079
   1.84154  0.78418 -0.00404 -1.03906  0.026711  0.002602 -0.000398    10.267
   1.85823  0.80079 -0.00245 -1.03830  0.027267  0.002622 -0.000394    10.398
   1.87481  0.81731 -0.00100 -1.03751  0.027681  0.002644 -0.000390    10.469
   1.89126  0.83371  0.00030 -1.03669  0.027936  0.002667 -0.000386    10.474
   1.90759  0.85000  0.00143 -1.03583  0.028024  0.002692 -0.000383    10.410
   1.92381  0.86619  0.00238 -1.03492  0.027934  0.002718 -0.000379    10.276
   1.93987  0.88223  0.00314 -1.03395  0.027666  0.002747 -0.000376    10.072
   1.95573  0.89808  0.00370 -1.03292  0.027209  0.002777 -0.000373     9.798
   1.97131  0.91366  0.00404 -1.03181  0.026560  0.002809 -0.000370     9.455
   1.98653  0.92887  0.00415 -1.03062  0.025708  0.002843 -0.000368     9.042
   2.00124  0.94358  0.00401 -1.02935  0.024666  0.002879 -0.000366     8.569
   2.01526  0.95760  0.00361 -1.02802  0.023462  0.002915 -0.000366     8.049
   2.02837  0.97069  0.00296 -1.02664  0.022136  0.002951 -0.000367     7.501
   2.04040  0.98268  0.00205 -1.02526  0.020760  0.002986 -0.000371     6.953
   2.05125  0.99348  0.00090 -1.02350  0.019458  0.003029 -0.000227     6.424
   2.05783  1.00000  0.00000 -1.01620  0.020378  0.003215 -0.000224     6.338
   2.05783  1.00010 -0.00002  1.01620  0.102107  0.015246  0.000000     6.698
   2.06446  1.00660 -0.00133  1.01117  0.095856  0.015891  0.000000     6.032
   2.07221  1.01424 -0.00264  1.00549  0.092734  0.016606  0.000000     5.584
   2.08127  1.02319 -0.00402  0.99863  0.089585  0.017464  0.000000     5.130
   2.09186  1.03367 -0.00550  0.99023  0.086255  0.018511  0.000000     4.660
   2.10423  1.04594 -0.00709  0.97972  0.082596  0.019821  0.000000     4.167
   2.11869  1.06030 -0.00881  0.96614  0.078541  0.021525  0.000000     3.649
   2.13560  1.07710 -0.01067  0.95100  0.073928  0.023442  0.000000     3.154
   2.15535  1.09676 -0.01269  0.93826  0.068587  0.025058  0.000000     2.737
   2.17845  1.11975 -0.01486  0.92803  0.062679  0.026342  0.000000     2.379
   2.20544  1.14664 -0.01719  0.92143  0.056414  0.027149  0.000000     2.078
   2.23698  1.17808 -0.01969  0.91929  0.050116  0.027399  0.000000     1.829
   2.27386  1.21486 -0.02236  0.92183  0.044169  0.027119  0.000000     1.629
   2.31695  1.25786 -0.02519  0.92836  0.038913  0.026448  0.000000     1.471
   2.36732  1.30814 -0.02818  0.93742  0.034547  0.025587  0.000000     1.350
   2.42619  1.36693 -0.03131  0.94734  0.031092  0.024712  0.000000     1.258
   2.49501  1.43567 -0.03457  0.95686  0.028445  0.023929  0.000000     1.189
   2.57543  1.51602 -0.03792  0.96530  0.026456  0.023274  0.000000     1.137
   2.66944  1.60996 -0.04134  0.97245  0.024978  0.022744  0.000000     1.098
   2.77931  1.71978 -0.04477  0.97835  0.023890  0.022324  0.000000     1.070
   2.90773  1.84816 -0.04816  0.98312  0.023094  0.021995  0.000000     1.050
   3.05782  1.99822 -0.05143  0.98839  0.022411  0.021640  0.000000     1.036
