#    s        x        y     Ue/Vinf    Dstar     Theta      Cf       H
   0.00000  1.00000  0.00000  1.05439  0.129881  0.020506 -0.000057     6.334
   0.00668  0.99360  0.00192  1.05554  0.126815  0.020321 -0.000058     6.241
   0.01807  0.98272  0.00530  1.05776  0.123434  0.019974 -0.000060     6.180
   0.03106  0.97032  0.00914  1.06039  0.119698  0.019574 -0.000061     6.115
   0.04516  0.95680  0.01317  1.06339  0.115854  0.019132 -0.000063     6.055
   0.06006  0.94246  0.01720  1.06674  0.112044  0.018656 -0.000065     6.006
   0.07565  0.92739  0.02118  1.07042  0.108313  0.018150 -0.000067     5.968
   0.09186  0.91167  0.02516  1.07447  0.104625  0.017614 -0.000070     5.940
   0.10852  0.89549  0.02915  1.07885  0.100944  0.017055 -0.000072     5.919
   0.12544  0.87905  0.03313  1.08354  0.097286  0.016480 -0.000075     5.903
   0.14250  0.86245  0.03708  1.08855  0.093670  0.015892 -0.000079     5.894
   0.15964  0.84577  0.04099  1.09388  0.090101  0.015292 -0.000082     5.892
   0.17681  0.82904  0.04484  1.09955  0.086588  0.014681 -0.000086     5.898
   0.19398  0.81229  0.04864  1.10559  0.083136  0.014059 -0.000090     5.913
   0.21115  0.79553  0.05238  1.11204  0.079752  0.013426 -0.000095     5.940
   0.22833  0.77875  0.05606  1.11894  0.076426  0.012782 -0.000100     5.979
   0.24546  0.76200  0.05967  1.12634  0.073165  0.012126 -0.000106     6.034
   0.26249  0.74535  0.06319  1.13425  0.069995  0.011460 -0.000112     6.108
   0.27941  0.72877  0.06660  1.14276  0.066935  0.010783 -0.000119     6.207
   0.29629  0.71222  0.06990  1.15196  0.063984  0.010092 -0.000127     6.340
   0.31313  0.69568  0.07308  1.16195  0.061139  0.009385 -0.000137     6.515
   0.32994  0.67915  0.07616  1.17286  0.058405  0.008659 -0.000148     6.745
   0.34670  0.66266  0.07911  1.18480  0.055772  0.007914 -0.000161     7.047
   0.36339  0.64620  0.08193  1.19793  0.053245  0.007148 -0.000177     7.449
   0.38005  0.62976  0.08462  1.21250  0.050825  0.006356 -0.000198     7.996
   0.39672  0.61329  0.08718  1.22887  0.048491  0.005532 -0.000227     8.766
   0.41338  0.59681  0.08962  1.24776  0.046199  0.004654 -0.000268     9.927
   0.42997  0.58038  0.09191  1.26988  0.043921  0.003713 -0.000335    11.831
   0.44649  0.56400  0.09406  1.29736  0.041584  0.002651 -0.000370    15.686
   0.46301  0.54760  0.09605  1.32462  0.039251  0.001716 -0.000728    22.872
   0.47954  0.53117  0.09790  1.32482  0.037410  0.001713 -0.000730    21.834
   0.49603  0.51477  0.09961  1.32496  0.035410  0.001713 -0.000732    20.677
   0.51242  0.49845  0.10115  1.32509  0.033338  0.001712 -0.000734    19.468
   0.52875  0.48218  0.10252  1.32521  0.031234  0.001713 -0.000736    18.237
   0.54509  0.46588  0.10371  1.32535  0.029120  0.001713 -0.000739    17.004
   0.56144  0.44957  0.10475  1.32550  0.026980  0.001712 -0.000742    15.758
   0.57774  0.43329  0.10561  1.32571  0.024856  0.001711 -0.000747    14.526
   0.59394  0.41711  0.10630  1.32599  0.022763  0.001709 -0.000753    13.322
   0.61007  0.40098  0.10679  1.32639  0.020726  0.001705 -0.000761    12.158
   0.62617  0.38489  0.10708  1.32696  0.018755  0.001698 -0.000771    11.044
   0.64227  0.36879  0.10718  1.32776  0.016858  0.001689 -0.000786     9.981
   0.65836  0.35270  0.10708  1.32888  0.015030  0.001676 -0.000805     8.966
   0.67432  0.33674  0.10680  1.33042  0.013281  0.001660 -0.000833     8.001
   0.69010  0.32097  0.10629  1.33254  0.011664  0.001639 -0.000871     7.119
   0.70583  0.30526  0.10554  1.33549  0.010219  0.001611 -0.000924     6.343
   0.72167  0.28945  0.10454  1.33953  0.008912  0.001577 -0.000987     5.652
   0.73747  0.27369  0.10335  1.34488  0.007684  0.001536 -0.001000     5.003
   0.75302  0.25820  0.10195  1.35180  0.006615  0.001488 -0.000822     4.446
   0.76841  0.24291  0.10027  1.36024  0.005751  0.001434 -0.000347     4.011
   0.78386  0.22758  0.09831  1.37020  0.005059  0.001374  0.000389     3.683
   0.79934  0.21226  0.09610  1.38170  0.004472  0.001308  0.001385     3.419
   0.81467  0.19713  0.09366  1.39420  0.003978  0.001239  0.002587     3.210
   0.82983  0.18221  0.09095  1.40663  0.003605  0.001172  0.003700     3.075
   0.84493  0.16741  0.08797  1.41872  0.003307  0.001107  0.004707     2.986
   0.85995  0.15275  0.08473  1.43071  0.003039  0.001043  0.005769     2.913
   0.87475  0.13836  0.08125  1.44249  0.002792  0.000980  0.006942     2.848
   0.88915  0.12444  0.07757  1.45388  0.002556  0.000918  0.008338     2.784
   0.90314  0.11101  0.07364  1.46367  0.002367  0.000860  0.009448     2.751
   0.91683  0.09797  0.06946  1.47249  0.002220  0.000806  0.010077     2.756
   0.92993  0.08560  0.06517  1.48341  0.002019  0.000746  0.011872     2.707
   0.94206  0.07425  0.06087  1.49322  0.001812  0.000688  0.014513     2.635
   0.95332  0.06387  0.05649  1.49745  0.001706  0.000642  0.015037     2.659
   0.96371  0.05444  0.05215  1.50357  0.001600  0.000595  0.015495     2.691
   0.97301  0.04611  0.04801  1.51306  0.001448  0.000544  0.017815     2.663
   0.98119  0.03891  0.04412  1.52109  0.001306  0.000497  0.020690     2.628
   0.98837  0.03273  0.04046  1.52677  0.001174  0.000454  0.024270     2.585
   0.99470  0.02743  0.03701  1.52860  0.001064  0.000417  0.027746     2.555
   1.00030  0.02288  0.03375  1.52734  0.000962  0.000382  0.032000     2.516
   1.00527  0.01898  0.03066  1.52122  0.000883  0.000353  0.035212     2.502
   1.00973  0.01561  0.02774  1.51305  0.000802  0.000325  0.039974     2.469
   1.01375  0.01272  0.02495  1.49942  0.000730  0.000300  0.045072     2.435
   1.01739  0.01024  0.02228  1.47946  0.000674  0.000278  0.048721     2.423
   1.02073  0.00811  0.01971  1.45554  0.000613  0.000257  0.054855     2.383
   1.02380  0.00630  0.01724  1.42217  0.000569  0.000240  0.058714     2.366
   1.02664  0.00476  0.01485  1.38262  0.000525  0.000225  0.063603     2.337
   1.02926  0.00350  0.01255  1.33366  0.000490  0.000212  0.067464     2.310
   1.03171  0.00246  0.01033  1.27578  0.000463  0.000202  0.069785     2.287
   1.03400  0.00163  0.00819  1.21193  0.000448  0.000195  0.067936     2.296
   1.03618  0.00098  0.00612  1.14956  0.000431  0.000186  0.065968     2.313
   1.03826  0.00048  0.00410  1.09083  0.000411  0.000174  0.062631     2.362
   1.04024  0.00015  0.00214  1.03027  0.000360  0.000156  0.070561     2.314
   1.04215  0.00001  0.00024  0.94441  0.000326  0.000142  0.072216     2.303
   1.04400  0.00012 -0.00161  0.82787  0.000292  0.000131  0.075033     2.237
   1.04587  0.00052 -0.00343  0.67863  0.000286  0.000127  0.061719     2.257
   1.04780  0.00123 -0.00524  0.50525  0.000279  0.000128  0.050398     2.180
   1.04986  0.00223 -0.00703  0.33010  0.000322  0.000144  0.027134     2.237
   1.05205  0.00354 -0.00879  0.18189  0.000326  0.000147  0.015074     2.216
   1.05438  0.00514 -0.01048  0.04137  0.000373  0.000167  0.002953     2.230
   1.05689  0.00705 -0.01212 -0.08526  0.000373  0.000167  0.006097     2.230
   1.05960  0.00924 -0.01371 -0.18054  0.000482  0.000210  0.009408     2.294
   1.06254  0.01171 -0.01530 -0.26377  0.000490  0.000222  0.014667     2.205
   1.06576  0.01450 -0.01689 -0.34065  0.000551  0.000241  0.015589     2.291
   1.06931  0.01766 -0.01852 -0.40040  0.000619  0.000271  0.016361     2.287
   1.07328  0.02125 -0.02021 -0.46172  0.000649  0.000288  0.018549     2.255
   1.07773  0.02534 -0.02197 -0.52064  0.000703  0.000308  0.018783     2.285
   1.08275  0.03002 -0.02380 -0.57223  0.000770  0.000335  0.018527     2.303
   1.08845  0.03539 -0.02569 -0.62085  0.000831  0.000361  0.018666     2.300
   1.09493  0.04158 -0.02763 -0.66768  0.000898  0.000389  0.018475     2.307
   1.10237  0.04875 -0.02960 -0.70901  0.000990  0.000424  0.017361     2.333
   1.11095  0.05710 -0.03158 -0.74365  0.001102  0.000467  0.015974     2.357
   1.12083  0.06678 -0.03358 -0.77421  0.001216  0.000514  0.014954     2.366
   1.13204  0.07781 -0.03556 -0.80241  0.001329  0.000561  0.014149     2.368
   1.14448  0.09010 -0.03747 -0.82741  0.001452  0.000611  0.013217     2.378
   1.15809  0.10359 -0.03926 -0.84875  0.001585  0.000663  0.012264     2.391
   1.17266  0.11806 -0.04096 -0.86737  0.001713  0.000715  0.011530     2.397
   1.18781  0.13314 -0.04249 -0.88557  0.001812  0.000760  0.011276     2.384
   1.20335  0.14862 -0.04385 -0.90139  0.001928  0.000806  0.010701     2.392
   1.21923  0.16445 -0.04503 -0.91516  0.002042  0.000851  0.010192     2.398
   1.23540  0.18059 -0.04604 -0.92605  0.002174  0.000900  0.009512     2.416
   1.25175  0.19691 -0.04691 -0.93747  0.002256  0.000939  0.009413     2.402
   1.26813  0.21328 -0.04763 -0.94743  0.002358  0.000980  0.009065     2.406
   1.28457  0.22971 -0.04819 -0.95646  0.002454  0.001019  0.008764     2.409
   1.30115  0.24629 -0.04860 -0.96421  0.002561  0.001059  0.008394     2.418
   1.31783  0.26296 -0.04890 -0.97158  0.002652  0.001096  0.008163     2.419
   1.33448  0.27961 -0.04908 -0.97887  0.002729  0.001130  0.008030     2.414
   1.35110  0.29624 -0.04912 -0.98528  0.002818  0.001166  0.007794     2.418
   1.36778  0.31291 -0.04903 -0.99085  0.002914  0.001201  0.007522     2.426
   1.38450  0.32963 -0.04882 -0.99617  0.003000  0.001235  0.007330     2.428
   1.40120  0.34633 -0.04849 -1.00128  0.003078  0.001268  0.007181     2.428
   1.41786  0.36298 -0.04803 -1.00559  0.003170  0.001302  0.006950     2.435
   1.43449  0.37961 -0.04745 -1.00936  0.003263  0.001336  0.006724     2.443
   1.45114  0.39623 -0.04673 -1.01265  0.003358  0.001370  0.006503     2.451
   1.46777  0.41285 -0.04588 -1.01508  0.003468  0.001407  0.006218     2.465
   1.48439  0.42943 -0.04489 -1.01703  0.003577  0.001444  0.005960     2.478
   1.50097  0.44597 -0.04378 -1.01833  0.003695  0.001482  0.005680     2.494
   1.51751  0.46247 -0.04253 -1.01896  0.003824  0.001522  0.005382     2.513
   1.53401  0.47892 -0.04112 -1.01830  0.003992  0.001567  0.004965     2.547
   1.55050  0.49532 -0.03957 -1.01682  0.004176  0.001616  0.004543     2.584
   1.56702  0.51176 -0.03785 -1.01401  0.004411  0.001671  0.004022     2.640
   1.58368  0.52831 -0.03597 -1.01011  0.004695  0.001732  0.003457     2.711
   1.60055  0.54506 -0.03395 -1.00556  0.005008  0.001796  0.002923     2.788
   1.61761  0.56199 -0.03181 -1.00071  0.005337  0.001862  0.002452     2.867
   1.63483  0.57906 -0.02959 -0.99574  0.005675  0.001927  0.002049     2.944
   1.65218  0.59626 -0.02732 -0.99082  0.006013  0.001992  0.001715     3.018
   1.66962  0.61355 -0.02500 -0.98602  0.006346  0.002056  0.001441     3.087
   1.68712  0.63090 -0.02268 -0.98143  0.006661  0.002118  0.001230     3.145
   1.70462  0.64824 -0.02037 -0.97706  0.006960  0.002178  0.001063     3.196
   1.72205  0.66552 -0.01809 -0.97292  0.007240  0.002236  0.000934     3.238
   1.73939  0.68272 -0.01585 -0.96899  0.007504  0.002292  0.000830     3.274
   1.75663  0.69982 -0.01367 -0.96530  0.007738  0.002346  0.000760     3.298
   1.77378  0.71684 -0.01156 -0.96184  0.007939  0.002398  0.000717     3.310
   1.79085  0.73379 -0.00953 -0.95863  0.008101  0.002448  0.000702     3.309
   1.80784  0.75067 -0.00760 -0.95564  0.008228  0.002495  0.000708     3.298
   1.82474  0.76746 -0.00576 -0.95289  0.008315  0.002540  0.000738     3.274
   1.84154  0.78418 -0.00404 -0.95043  0.008359  0.002582  0.000792     3.237
   1.85823  0.80079 -0.00245 -0.94827  0.008357  0.002621  0.000871     3.189
   1.87481  0.81731 -0.00100 -0.94649  0.008303  0.002655  0.000983     3.127
   1.89126  0.83371  0.00030 -0.94520  0.008192  0.002683  0.001133     3.053
   1.90759  0.85000  0.00143 -0.94450  0.008024  0.002704  0.001328     2.967
   1.92381  0.86619  0.00238 -0.94460  0.007796  0.002716  0.001576     2.870
   1.93987  0.88223  0.00314 -0.94564  0.007518  0.002717  0.001882     2.767
   1.95573  0.89808  0.00370 -0.94793  0.007187  0.002705  0.002261     2.657
   1.97131  0.91366  0.00404 -0.95181  0.006805  0.002676  0.002732     2.543
   1.98653  0.92887  0.00415 -0.95789  0.006362  0.002625  0.003338     2.423
   2.00124  0.94358  0.00401 -0.96685  0.005865  0.002550  0.004122     2.300
   2.01526  0.95760  0.00361 -0.97958  0.005321  0.002446  0.005150     2.176
   2.02837  0.97069  0.00296 -0.99776  0.004722  0.002305  0.006577     2.048
   2.04040  0.98268  0.00205 -1.02395  0.004068  0.002122  0.008661     1.917
   2.05125  0.99348  0.00090 -1.06541  0.003315  0.001869  0.012231     1.773
   2.05783  1.00000  0.00000 -1.05439  0.003700  0.001979  0.010150     1.870
   2.05783  1.00010 -0.00002  1.05439  0.133580  0.022484  0.000000     5.941
   2.06446  1.00660 -0.00132  1.05163  0.129768  0.022948  0.000000     5.655
   2.07221  1.01425 -0.00255  1.04860  0.128008  0.023454  0.000000     5.458
   2.08127  1.02322 -0.00382  1.04500  0.126233  0.024054  0.000000     5.248
   2.09186  1.03372 -0.00514  1.04072  0.124324  0.024769  0.000000     5.019
   2.10423  1.04602 -0.00650  1.03557  0.122152  0.025631  0.000000     4.766
   2.11869  1.06041 -0.00791  1.02932  0.119623  0.026679  0.000000     4.484
   2.13560  1.07726 -0.00936  1.02164  0.116644  0.027973  0.000000     4.170
   2.15535  1.09696 -0.01082  1.01200  0.113137  0.029609  0.000000     3.821
   2.17845  1.12001 -0.01228  0.99961  0.109051  0.031734  0.000000     3.436
   2.20544  1.14696 -0.01369  0.98660  0.104156  0.033993  0.000000     3.064
   2.23698  1.17848 -0.01500  0.97525  0.098340  0.035975  0.000000     2.734
   2.27386  1.21533 -0.01616  0.96543  0.091753  0.037683  0.000000     2.435
   2.31695  1.25842 -0.01707  0.95791  0.084582  0.038971  0.000000     2.170
   2.36732  1.30878 -0.01763  0.95335  0.077131  0.039733  0.000000     1.941
   2.42619  1.36766 -0.01770  0.95206  0.069793  0.039941  0.000000     1.747
   2.49501  1.43647 -0.01712  0.95381  0.062965  0.039673  0.000000     1.587
   2.57543  1.51688 -0.01569  0.95788  0.056953  0.039082  0.000000     1.457
   2.66944  1.61085 -0.01316  0.96326  0.051902  0.038345  0.000000     1.354
   2.77931  1.72065 -0.00922  0.96901  0.047802  0.037596  0.000000     1.271
   2.90773  1.84894 -0.00352  0.97456  0.044536  0.036907  0.000000     1.207
   3.05782  1.99883  0.00437  0.98597  0.041003  0.035566  0.000000     1.153
