#    s        x        y     Ue/Vinf    Dstar     Theta      Cf       H
   0.00000  1.00000  0.00000  1.01777  0.098332  0.014926 -0.000075     6.588
   0.00668  0.99360  0.00192  1.01960  0.095078  0.014700 -0.000077     6.468
   0.01807  0.98272  0.00530  1.02319  0.092087  0.014270 -0.000079     6.453
   0.03106  0.97032  0.00914  1.02753  0.088907  0.013769 -0.000083     6.457
   0.04516  0.95680  0.01317  1.03256  0.085750  0.013211 -0.000086     6.491
   0.06006  0.94246  0.01720  1.03825  0.082722  0.012608 -0.000091     6.561
   0.07565  0.92739  0.02118  1.04462  0.079848  0.011961 -0.000096     6.676
   0.09186  0.91167  0.02516  1.05173  0.077081  0.011272 -0.000101     6.839
   0.10852  0.89549  0.02915  1.05958  0.074367  0.010547 -0.000108     7.051
   0.12544  0.87905  0.03313  1.06817  0.071709  0.009794 -0.000116     7.321
   0.14250  0.86245  0.03708  1.07753  0.069105  0.009016 -0.000125     7.665
   0.15964  0.84577  0.04099  1.08777  0.066556  0.008213 -0.000137     8.104
   0.17681  0.82904  0.04484  1.09899  0.064052  0.007384 -0.000152     8.675
   0.19398  0.81229  0.04864  1.11136  0.061583  0.006525 -0.000172     9.438
   0.21115  0.79553  0.05238  1.12530  0.059131  0.005621 -0.000199    10.519
   0.22833  0.77875  0.05606  1.14144  0.056651  0.004649 -0.000240    12.185
   0.24546  0.76200  0.05967  1.16067  0.054085  0.003582 -0.000296    15.101
   0.26249  0.74535  0.06319  1.18588  0.051306  0.002296 -0.000309    22.342
   0.27941  0.72877  0.06660  1.19382  0.049067  0.001936 -0.000580    25.347
   0.29629  0.71222  0.06990  1.19389  0.046953  0.001936 -0.000580    24.247
   0.31313  0.69568  0.07308  1.19392  0.044728  0.001938 -0.000581    23.075
   0.32994  0.67915  0.07616  1.19394  0.042440  0.001941 -0.000581    21.864
   0.34670  0.66266  0.07911  1.19394  0.040103  0.001944 -0.000581    20.625
   0.36339  0.64620  0.08193  1.19394  0.037755  0.001948 -0.000582    19.384
   0.38005  0.62976  0.08462  1.19395  0.035410  0.001951 -0.000583    18.150
   0.39672  0.61329  0.08718  1.19397  0.033080  0.001954 -0.000584    16.933
   0.41338  0.59681  0.08962  1.19402  0.030762  0.001956 -0.000586    15.730
   0.42997  0.58038  0.09191  1.19410  0.028474  0.001957 -0.000588    14.552
   0.44649  0.56400  0.09406  1.19424  0.026243  0.001956 -0.000592    13.414
   0.46301  0.54760  0.09605  1.19447  0.024078  0.001954 -0.000597    12.321
   0.47954  0.53117  0.09790  1.19482  0.021965  0.001950 -0.000604    11.264
   0.49603  0.51477  0.09961  1.19531  0.019914  0.001943 -0.000613    10.248
   0.51242  0.49845  0.10115  1.19601  0.017960  0.001933 -0.000625     9.290
   0.52875  0.48218  0.10252  1.19701  0.016117  0.001920 -0.000641     8.396
   0.54509  0.46588  0.10371  1.19838  0.014384  0.001902 -0.000664     7.565
   0.56144  0.44957  0.10475  1.20025  0.012757  0.001878 -0.000695     6.792
   0.57774  0.43329  0.10561  1.20274  0.011234  0.001850 -0.000737     6.073
   0.59394  0.41711  0.10630  1.20608  0.009863  0.001815 -0.000775     5.435
   0.61007  0.40098  0.10679  1.21043  0.008638  0.001773 -0.000762     4.873
   0.62617  0.38489  0.10708  1.21595  0.007566  0.001724 -0.000605     4.389
   0.64227  0.36879  0.10718  1.22257  0.006637  0.001669 -0.000221     3.976
   0.65836  0.35270  0.10708  1.23037  0.005841  0.001608  0.000415     3.632
   0.67432  0.33674  0.10680  1.23941  0.005157  0.001541  0.001304     3.347
   0.69010  0.32097  0.10629  1.24910  0.004607  0.001470  0.002316     3.133
   0.70583  0.30526  0.10554  1.25849  0.004193  0.001402  0.003265     2.991
   0.72167  0.28945  0.10454  1.26720  0.003869  0.001337  0.004122     2.894
   0.73747  0.27369  0.10335  1.27591  0.003546  0.001271  0.005229     2.790
   0.75302  0.25820  0.10195  1.28348  0.003263  0.001209  0.006408     2.700
   0.76841  0.24291  0.10027  1.28875  0.003054  0.001154  0.007340     2.646
   0.78386  0.22758  0.09831  1.29193  0.002901  0.001106  0.007947     2.624
   0.79934  0.21226  0.09610  1.29485  0.002739  0.001056  0.008736     2.593
   0.81467  0.19713  0.09366  1.29680  0.002580  0.001007  0.009628     2.562
   0.82983  0.18221  0.09095  1.29708  0.002441  0.000961  0.010415     2.541
   0.84493  0.16741  0.08797  1.29566  0.002329  0.000918  0.010931     2.538
   0.85995  0.15275  0.08473  1.29418  0.002203  0.000872  0.011688     2.527
   0.87475  0.13836  0.08125  1.29171  0.002079  0.000825  0.012468     2.519
   0.88915  0.12444  0.07757  1.28890  0.001931  0.000776  0.013871     2.487
   0.90314  0.11101  0.07364  1.28255  0.001814  0.000732  0.014830     2.477
   0.91683  0.09797  0.06946  1.27430  0.001720  0.000690  0.015289     2.493
   0.92993  0.08560  0.06517  1.26724  0.001592  0.000642  0.016633     2.481
   0.94206  0.07425  0.06087  1.25848  0.001432  0.000592  0.019571     2.419
   0.95332  0.06387  0.05649  1.24093  0.001350  0.000556  0.020274     2.429
   0.96371  0.05444  0.05215  1.22401  0.001279  0.000519  0.020361     2.464
   0.97301  0.04611  0.04801  1.21090  0.001166  0.000476  0.022418     2.450
   0.98119  0.03891  0.04412  1.19496  0.001057  0.000436  0.025011     2.426
   0.98837  0.03273  0.04046  1.17457  0.000964  0.000400  0.027442     2.408
   0.99470  0.02743  0.03701  1.15000  0.000877  0.000369  0.030338     2.381
   1.00030  0.02288  0.03375  1.12037  0.000816  0.000342  0.031605     2.386
   1.00527  0.01898  0.03066  1.08948  0.000742  0.000314  0.034644     2.361
   1.00973  0.01561  0.02774  1.05184  0.000682  0.000291  0.037002     2.344
   1.01375  0.01272  0.02495  1.00843  0.000629  0.000270  0.039033     2.328
   1.01739  0.01024  0.02228  0.95966  0.000586  0.000252  0.040065     2.324
   1.02073  0.00811  0.01971  0.90608  0.000539  0.000234  0.041693     2.308
   1.02380  0.00630  0.01724  0.84367  0.000498  0.000218  0.042905     2.286
   1.02664  0.00476  0.01485  0.77157  0.000467  0.000206  0.042528     2.268
   1.02926  0.00350  0.01255  0.69727  0.000448  0.000194  0.038660     2.308
   1.03171  0.00246  0.01033  0.61355  0.000399  0.000181  0.041924     2.206
   1.03400  0.00163  0.00819  0.51483  0.000414  0.000182  0.032040     2.268
   1.03618  0.00098  0.00612  0.42903  0.000382  0.000169  0.029086     2.260
   1.03826  0.00048  0.00410  0.32936  0.000353  0.000157  0.024507     2.245
   1.04024  0.00015  0.00214  0.21526  0.000329  0.000147  0.017212     2.244
   1.04215  0.00001  0.00024  0.08556  0.000305  0.000137  0.007481     2.230
   1.04400  0.00012 -0.00161 -0.05457  0.000305  0.000137  0.004777     2.230
   1.04587  0.00052 -0.00343 -0.20649  0.000288  0.000129  0.019267     2.222
   1.04780  0.00123 -0.00524 -0.35582  0.000307  0.000136  0.030185     2.255
   1.04986  0.00223 -0.00703 -0.48234  0.000339  0.000150  0.036938     2.261
   1.05205  0.00354 -0.00879 -0.59641  0.000362  0.000160  0.042832     2.257
   1.05438  0.00514 -0.01048 -0.67895  0.000426  0.000182  0.038657     2.333
   1.05689  0.00705 -0.01212 -0.74532  0.000466  0.000202  0.039990     2.301
   1.05960  0.00924 -0.01371 -0.78790  0.000558  0.000233  0.032061     2.399
   1.06254  0.01171 -0.01530 -0.82711  0.000595  0.000255  0.033643     2.334
   1.06576  0.01450 -0.01689 -0.86212  0.000660  0.000279  0.030721     2.364
   1.06931  0.01766 -0.01852 -0.88905  0.000735  0.000308  0.027683     2.391
   1.07328  0.02125 -0.02021 -0.91928  0.000773  0.000329  0.028368     2.350
   1.07773  0.02534 -0.02197 -0.94603  0.000846  0.000356  0.025967     2.378
   1.08275  0.03002 -0.02380 -0.96951  0.000919  0.000385  0.024196     2.390
   1.08845  0.03539 -0.02569 -0.99467  0.000974  0.000411  0.023833     2.372
   1.09493  0.04158 -0.02763 -1.01616  0.001065  0.000444  0.021669     2.400
   1.10237  0.04875 -0.02960 -1.03392  0.001166  0.000482  0.019685     2.422
   1.11095  0.05710 -0.03158 -1.04447  0.001314  0.000531  0.016677     2.477
   1.12083  0.06678 -0.03358 -1.05306  0.001446  0.000582  0.015137     2.486
   1.13204  0.07781 -0.03556 -1.06012  0.001587  0.000636  0.013742     2.496
   1.14448  0.09010 -0.03747 -1.06570  0.001735  0.000692  0.012498     2.506
   1.15809  0.10359 -0.03926 -1.06925  0.001899  0.000752  0.011236     2.524
   1.17266  0.11806 -0.04096 -1.07299  0.002038  0.000809  0.010561     2.519
   1.18781  0.13314 -0.04249 -1.07721  0.002162  0.000862  0.010106     2.509
   1.20335  0.14862 -0.04385 -1.08097  0.002292  0.000914  0.009573     2.508
   1.21923  0.16445 -0.04503 -1.08411  0.002423  0.000964  0.009047     2.512
   1.23540  0.18059 -0.04604 -1.08566  0.002575  0.001018  0.008352     2.530
   1.25175  0.19691 -0.04691 -1.08836  0.002677  0.001063  0.008168     2.518
   1.26813  0.21328 -0.04763 -1.09069  0.002788  0.001108  0.007874     2.516
   1.28457  0.22971 -0.04819 -1.09258  0.002904  0.001152  0.007546     2.519
   1.30115  0.24629 -0.04860 -1.09379  0.003029  0.001198  0.007169     2.529
   1.31783  0.26296 -0.04890 -1.09498  0.003141  0.001241  0.006897     2.532
   1.33448  0.27961 -0.04908 -1.09652  0.003234  0.001280  0.006749     2.526
   1.35110  0.29624 -0.04912 -1.09737  0.003346  0.001321  0.006479     2.533
   1.36778  0.31291 -0.04903 -1.09795  0.003459  0.001362  0.006222     2.540
   1.38450  0.32963 -0.04882 -1.09823  0.003574  0.001402  0.005970     2.548
   1.40120  0.34633 -0.04849 -1.09853  0.003678  0.001441  0.005780     2.552
   1.41786  0.36298 -0.04803 -1.09820  0.003801  0.001482  0.005512     2.565
   1.43449  0.37961 -0.04745 -1.09761  0.003925  0.001523  0.005261     2.577
   1.45114  0.39623 -0.04673 -1.09643  0.004067  0.001566  0.004962     2.597
   1.46777  0.41285 -0.04588 -1.09455  0.004230  0.001612  0.004613     2.624
   1.48439  0.42943 -0.04489 -1.09214  0.004407  0.001659  0.004257     2.656
   1.50097  0.44597 -0.04378 -1.08914  0.004606  0.001709  0.003876     2.695
   1.51751  0.46247 -0.04253 -1.08538  0.004842  0.001763  0.003444     2.746
   1.53401  0.47892 -0.04112 -1.08082  0.005131  0.001822  0.002951     2.817
   1.55050  0.49532 -0.03957 -1.07556  0.005482  0.001885  0.002416     2.909
   1.56702  0.51176 -0.03785 -1.06967  0.005923  0.001952  0.001831     3.034
   1.58368  0.52831 -0.03597 -1.06354  0.006463  0.002022  0.001245     3.197
   1.60055  0.54506 -0.03395 -1.05762  0.007084  0.002090  0.000724     3.390
   1.61761  0.56199 -0.03181 -1.05221  0.007767  0.002153  0.000304     3.607
   1.63483  0.57906 -0.02959 -1.04738  0.008499  0.002212 -0.000012     3.842
   1.65218  0.59626 -0.02732 -1.04307  0.009268  0.002266 -0.000229     4.090
   1.66962  0.61355 -0.02500 -1.03917  0.010050  0.002317 -0.000363     4.337
   1.68712  0.63090 -0.02268 -1.03560  0.010831  0.002366 -0.000436     4.578
   1.70462  0.64824 -0.02037 -1.03240  0.011596  0.002412 -0.000470     4.809
   1.72205  0.66552 -0.01809 -1.02952  0.012335  0.002455 -0.000480     5.025
   1.73939  0.68272 -0.01585 -1.02692  0.013043  0.002495 -0.000478     5.227
   1.75663  0.69982 -0.01367 -1.02454  0.013700  0.002534 -0.000472     5.406
   1.77378  0.71684 -0.01156 -1.02233  0.014293  0.002571 -0.000464     5.558
   1.79085  0.73379 -0.00953 -1.02025  0.014815  0.002608 -0.000454     5.681
   1.80784  0.75067 -0.00760 -1.01827  0.015257  0.002644 -0.000445     5.771
   1.82474  0.76746 -0.00576 -1.01636  0.015611  0.002679 -0.000437     5.827
   1.84154  0.78418 -0.00404 -1.01449  0.015868  0.002714 -0.000430     5.846
   1.85823  0.80079 -0.00245 -1.01265  0.016016  0.002750 -0.000424     5.824
   1.87481  0.81731 -0.00100 -1.01081  0.016046  0.002786 -0.000420     5.760
   1.89126  0.83371  0.00030 -1.00895  0.015943  0.002822 -0.000416     5.650
   1.90759  0.85000  0.00143 -1.00706  0.015702  0.002859 -0.000411     5.492
   1.92381  0.86619  0.00238 -1.00513  0.015313  0.002897 -0.000404     5.287
   1.93987  0.88223  0.00314 -1.00314  0.014781  0.002935 -0.000392     5.037
   1.95573  0.89808  0.00370 -1.00112  0.014098  0.002973 -0.000362     4.742
   1.97131  0.91366  0.00404 -0.99912  0.013265  0.003009 -0.000290     4.408
   1.98653  0.92887  0.00415 -0.99719  0.012282  0.003044 -0.000134     4.035
   2.00124  0.94358  0.00401 -0.99575  0.011169  0.003070  0.000170     3.638
   2.01526  0.95760  0.00361 -0.99602  0.009960  0.003068  0.000683     3.246
   2.02837  0.97069  0.00296 -0.99975  0.008693  0.003018  0.001475     2.880
   2.04040  0.98268  0.00205 -1.00891  0.007417  0.002903  0.002622     2.555
   2.05125  0.99348  0.00090 -1.02557  0.006179  0.002717  0.004254     2.274
   2.05783  1.00000  0.00000 -1.01777  0.006781  0.002821  0.003396     2.404
   2.05783  1.00010 -0.00002  1.01777  0.105113  0.017747  0.000000     5.923
   2.06446  1.00660 -0.00133  1.01402  0.099798  0.018259  0.000000     5.466
   2.07221  1.01424 -0.00261  1.00986  0.097154  0.018816  0.000000     5.163
   2.08127  1.02320 -0.00396  1.00485  0.094487  0.019483  0.000000     4.850
   2.09186  1.03369 -0.00539  0.99874  0.091660  0.020293  0.000000     4.517
   2.10423  1.04597 -0.00691  0.99115  0.088537  0.021298  0.000000     4.157
   2.11869  1.06034 -0.00854  0.98149  0.085042  0.022579  0.000000     3.766
   2.13560  1.07715 -0.01028  0.96935  0.081114  0.024197  0.000000     3.352
   2.15535  1.09682 -0.01212  0.95847  0.076510  0.025650  0.000000     2.983
   2.17845  1.11983 -0.01408  0.94881  0.071304  0.026931  0.000000     2.648
   2.20544  1.14674 -0.01613  0.94109  0.065600  0.027939  0.000000     2.348
   2.23698  1.17822 -0.01827  0.93614  0.059586  0.028568  0.000000     2.086
   2.27386  1.21502 -0.02048  0.93457  0.053544  0.028759  0.000000     1.862
   2.31695  1.25806 -0.02274  0.93653  0.047799  0.028532  0.000000     1.675
   2.36732  1.30838 -0.02499  0.94154  0.042647  0.027990  0.000000     1.524
   2.42619  1.36721 -0.02720  0.94854  0.038272  0.027281  0.000000     1.403
   2.49501  1.43599 -0.02929  0.95633  0.034716  0.026543  0.000000     1.308
   2.57543  1.51639 -0.03119  0.96391  0.031910  0.025866  0.000000     1.234
   2.66944  1.61038 -0.03280  0.97073  0.029735  0.025289  0.000000     1.176
   2.77931  1.72025 -0.03399  0.97656  0.028071  0.024815  0.000000     1.131
   2.90773  1.84867 -0.03462  0.98142  0.026809  0.024435  0.000000     1.097
   3.05782  1.99876 -0.03450  0.98785  0.025651  0.023948  0.000000     1.071
