#    s        x        y     Ue/Vinf    Dstar     Theta      Cf       H
   0.00000  1.00000  0.00000  1.13587  0.190168  0.005197 -0.000284    36.594
   0.00667  0.99364  0.00201  1.13579  0.186768  0.005213 -0.001219    35.824
   0.01801  0.98283  0.00544  1.13580  0.183052  0.005218 -0.001218    35.082
   0.03089  0.97055  0.00931  1.13581  0.178905  0.005222 -0.001218    34.259
   0.04491  0.95712  0.01335  1.13583  0.174559  0.005225 -0.001218    33.408
   0.05974  0.94286  0.01740  1.13587  0.170141  0.005226 -0.001218    32.555
   0.07527  0.92786  0.02141  1.13592  0.165699  0.005226 -0.001219    31.709
   0.09142  0.91220  0.02541  1.13598  0.161191  0.005224 -0.001220    30.858
   0.10802  0.89609  0.02942  1.13605  0.156596  0.005221 -0.001222    29.992
   0.12488  0.87971  0.03341  1.13612  0.151931  0.005219 -0.001223    29.111
   0.14188  0.86318  0.03738  1.13619  0.147212  0.005217 -0.001225    28.217
   0.15896  0.84656  0.04130  1.13626  0.142450  0.005215 -0.001226    27.313
   0.17607  0.82989  0.04517  1.13633  0.137656  0.005214 -0.001228    26.400
   0.19318  0.81321  0.04899  1.13640  0.132841  0.005213 -0.001229    25.482
   0.21029  0.79652  0.05273  1.13648  0.128008  0.005212 -0.001231    24.558
   0.22743  0.77978  0.05643  1.13655  0.123151  0.005212 -0.001233    23.630
   0.24453  0.76308  0.06007  1.13662  0.118269  0.005211 -0.001234    22.694
   0.26151  0.74647  0.06361  1.13670  0.113405  0.005211 -0.001236    21.762
   0.27839  0.72994  0.06704  1.13678  0.108582  0.005211 -0.001239    20.839
   0.29522  0.71344  0.07036  1.13687  0.103796  0.005209 -0.001241    19.925
   0.31203  0.69694  0.07357  1.13697  0.099049  0.005207 -0.001244    19.021
   0.32881  0.68046  0.07667  1.13709  0.094345  0.005204 -0.001248    18.129
   0.34552  0.66401  0.07965  1.13723  0.089700  0.005200 -0.001252    17.250
   0.36216  0.64761  0.08250  1.13739  0.085122  0.005195 -0.001257    16.387
   0.37877  0.63123  0.08521  1.13758  0.080630  0.005187 -0.001263    15.544
   0.39539  0.61480  0.08779  1.13780  0.076205  0.005177 -0.001270    14.719
   0.41202  0.59836  0.09025  1.13807  0.071845  0.005166 -0.001278    13.908
   0.42857  0.58198  0.09257  1.13840  0.067573  0.005151 -0.001288    13.118
   0.44503  0.56566  0.09473  1.13878  0.063412  0.005134 -0.001299    12.352
   0.46148  0.54933  0.09674  1.13925  0.059364  0.005113 -0.001313    11.611
   0.47798  0.53293  0.09860  1.13982  0.055413  0.005087 -0.001329    10.893
   0.49446  0.51655  0.10033  1.14050  0.051544  0.005057 -0.001349    10.192
   0.51082  0.50026  0.10190  1.14133  0.047815  0.005023 -0.001372     9.520
   0.52710  0.48404  0.10328  1.14232  0.044229  0.004983 -0.001400     8.876
   0.54339  0.46779  0.10449  1.14354  0.040790  0.004936 -0.001434     8.264
   0.55971  0.45151  0.10554  1.14501  0.037477  0.004882 -0.001477     7.677
   0.57600  0.43525  0.10643  1.14680  0.034294  0.004820 -0.001529     7.115
   0.59218  0.41907  0.10713  1.14896  0.031278  0.004750 -0.001595     6.585
   0.60829  0.40298  0.10765  1.15157  0.028441  0.004671 -0.001675     6.089
   0.62434  0.38693  0.10796  1.15474  0.025789  0.004581 -0.001759     5.629
   0.64042  0.37085  0.10808  1.15859  0.023303  0.004480 -0.001802     5.201
   0.65651  0.35476  0.10800  1.16323  0.020992  0.004367 -0.001753     4.807
   0.67249  0.33878  0.10774  1.16872  0.018851  0.004242 -0.001493     4.444
   0.68825  0.32303  0.10727  1.17501  0.016917  0.004109 -0.000924     4.117
   0.70393  0.30737  0.10654  1.18213  0.015222  0.003966 -0.000025     3.838
   0.71975  0.29158  0.10557  1.19026  0.013720  0.003811  0.001204     3.601
   0.73559  0.27578  0.10439  1.19937  0.012346  0.003644  0.002840     3.388
   0.75115  0.26028  0.10302  1.20912  0.011118  0.003471  0.004872     3.203
   0.76650  0.24502  0.10139  1.21894  0.010110  0.003299  0.006982     3.064
   0.78192  0.22972  0.09944  1.22854  0.009281  0.003132  0.009018     2.963
   0.79744  0.21436  0.09725  1.23803  0.008521  0.002965  0.011295     2.874
   0.81279  0.19920  0.09484  1.24702  0.007823  0.002802  0.013853     2.792
   0.82793  0.18429  0.09217  1.25469  0.007251  0.002650  0.016158     2.736
   0.84302  0.16950  0.08922  1.26138  0.006742  0.002503  0.018434     2.693
   0.85806  0.15481  0.08599  1.26705  0.006281  0.002360  0.020664     2.661
   0.87291  0.14036  0.08253  1.27205  0.005821  0.002217  0.023336     2.626
   0.88737  0.12638  0.07886  1.27591  0.005366  0.002076  0.026616     2.585
   0.90140  0.11290  0.07496  1.27727  0.004989  0.001946  0.029343     2.564
   0.91519  0.09977  0.07076  1.27698  0.004656  0.001819  0.031583     2.560
   0.92848  0.08721  0.06643  1.27657  0.004269  0.001685  0.035442     2.534
   0.94079  0.07568  0.06209  1.27399  0.003868  0.001555  0.041055     2.487
   0.95221  0.06515  0.05767  1.26595  0.003603  0.001448  0.043714     2.488
   0.96284  0.05550  0.05322  1.25744  0.003355  0.001340  0.045936     2.503
   0.97241  0.04692  0.04898  1.25010  0.003064  0.001228  0.050368     2.496
   0.98081  0.03952  0.04501  1.24134  0.002754  0.001119  0.057709     2.461
   0.98816  0.03319  0.04127  1.22754  0.002507  0.001026  0.063753     2.445
   0.99463  0.02777  0.03774  1.21037  0.002269  0.000940  0.071625     2.415
   1.00034  0.02313  0.03441  1.18779  0.002086  0.000867  0.077172     2.406
   1.00542  0.01915  0.03125  1.16203  0.001897  0.000798  0.085321     2.378
   1.00996  0.01574  0.02825  1.13020  0.001751  0.000739  0.090586     2.370
   1.01405  0.01281  0.02541  1.09450  0.001604  0.000683  0.097729     2.349
   1.01775  0.01030  0.02269  1.05160  0.001472  0.000634  0.105042     2.321
   1.02112  0.00816  0.02007  1.00109  0.001379  0.000595  0.106971     2.319
   1.02423  0.00634  0.01756  0.94639  0.001280  0.000556  0.110691     2.303
   1.02710  0.00481  0.01513  0.88313  0.001189  0.000523  0.114146     2.274
   1.02975  0.00353  0.01281  0.81213  0.001138  0.000500  0.109320     2.277
   1.03221  0.00250  0.01057  0.73997  0.001079  0.000474  0.105231     2.276
   1.03452  0.00166  0.00842  0.66179  0.001013  0.000449  0.102380     2.253
   1.03670  0.00100  0.00634  0.57552  0.000975  0.000433  0.092454     2.252
   1.03878  0.00049  0.00433  0.48804  0.000931  0.000410  0.080686     2.273
   1.04077  0.00014  0.00237  0.39397  0.000841  0.000371  0.072685     2.263
   1.04268 -0.00001  0.00047  0.27792  0.000759  0.000339  0.057904     2.242
   1.04452  0.00009 -0.00138  0.13882  0.000720  0.000323  0.030833     2.230
   1.04638  0.00049 -0.00318 -0.01153  0.000720  0.000323  0.002573     2.230
   1.04830  0.00119 -0.00498 -0.15497  0.000770  0.000345  0.032104     2.232
   1.05035  0.00220 -0.00676 -0.29310  0.000798  0.000357  0.058434     2.236
   1.05254  0.00351 -0.00851 -0.40788  0.000912  0.000400  0.068302     2.281
   1.05487  0.00512 -0.01021 -0.50749  0.000972  0.000432  0.082115     2.248
   1.05738  0.00701 -0.01184 -0.58864  0.001109  0.000480  0.078994     2.309
   1.06008  0.00920 -0.01343 -0.64798  0.001259  0.000542  0.075479     2.324
   1.06301  0.01168 -0.01499 -0.69963  0.001380  0.000596  0.074923     2.316
   1.06622  0.01448 -0.01656 -0.74300  0.001536  0.000656  0.069803     2.341
   1.06978  0.01766 -0.01815 -0.78121  0.001679  0.000717  0.067091     2.342
   1.07377  0.02129 -0.01981 -0.81480  0.001845  0.000783  0.062726     2.357
   1.07825  0.02543 -0.02154 -0.84727  0.001986  0.000845  0.061064     2.349
   1.08332  0.03017 -0.02333 -0.87929  0.002133  0.000908  0.059052     2.349
   1.08907  0.03561 -0.02519 -0.90923  0.002306  0.000977  0.055902     2.359
   1.09564  0.04190 -0.02708 -0.93613  0.002509  0.001056  0.052081     2.375
   1.10320  0.04922 -0.02900 -0.95938  0.002749  0.001148  0.047749     2.395
   1.11196  0.05776 -0.03093 -0.97724  0.003060  0.001260  0.042228     2.429
   1.12207  0.06768 -0.03288 -0.99256  0.003364  0.001379  0.038611     2.439
   1.13350  0.07895 -0.03481 -1.00610  0.003680  0.001504  0.035524     2.446
   1.14613  0.09144 -0.03664 -1.01791  0.004007  0.001633  0.032769     2.454
   1.15994  0.10515 -0.03835 -1.02671  0.004388  0.001773  0.029532     2.474
   1.17469  0.11981 -0.03996 -1.03547  0.004695  0.001903  0.028067     2.467
   1.18993  0.13498 -0.04141 -1.04380  0.004989  0.002026  0.026744     2.462
   1.20552  0.15051 -0.04267 -1.05119  0.005286  0.002146  0.025383     2.464
   1.22143  0.16639 -0.04375 -1.05754  0.005586  0.002263  0.024043     2.468
   1.23764  0.18258 -0.04467 -1.06303  0.005883  0.002378  0.022826     2.474
   1.25400  0.19892 -0.04546 -1.06846  0.006137  0.002485  0.022077     2.470
   1.27036  0.21526 -0.04609 -1.07361  0.006378  0.002585  0.021410     2.467
   1.28677  0.23166 -0.04656 -1.07807  0.006633  0.002685  0.020603     2.470
   1.30335  0.24824 -0.04689 -1.08188  0.006898  0.002786  0.019758     2.476
   1.32002  0.26491 -0.04711 -1.08567  0.007128  0.002880  0.019202     2.476
   1.33663  0.28153 -0.04721 -1.08937  0.007341  0.002968  0.018755     2.473
   1.35321  0.29810 -0.04717 -1.09241  0.007582  0.003059  0.018113     2.478
   1.36986  0.31475 -0.04699 -1.09519  0.007813  0.003148  0.017557     2.482
   1.38656  0.33145 -0.04670 -1.09773  0.008038  0.003235  0.017048     2.485
   1.40323  0.34811 -0.04629 -1.09985  0.008275  0.003322  0.016491     2.491
   1.41985  0.36473 -0.04576 -1.10179  0.008499  0.003407  0.016020     2.494
   1.43647  0.38133 -0.04510 -1.10318  0.008751  0.003495  0.015428     2.504
   1.45309  0.39793 -0.04431 -1.10408  0.009018  0.003585  0.014795     2.515
   1.46972  0.41453 -0.04339 -1.10459  0.009293  0.003676  0.014173     2.528
   1.48633  0.43111 -0.04234 -1.10457  0.009592  0.003771  0.013495     2.544
   1.50291  0.44765 -0.04116 -1.10414  0.009902  0.003867  0.012826     2.560
   1.51945  0.46414 -0.03985 -1.10305  0.010256  0.003969  0.012050     2.584
   1.53596  0.48059 -0.03840 -1.10144  0.010640  0.004075  0.011245     2.611
   1.55247  0.49701 -0.03680 -1.09911  0.011086  0.004189  0.010335     2.646
   1.56903  0.51348 -0.03504 -1.09610  0.011596  0.004311  0.009352     2.690
   1.58574  0.53008 -0.03313 -1.09252  0.012167  0.004440  0.008345     2.740
   1.60264  0.54687 -0.03109 -1.08858  0.012776  0.004574  0.007390     2.793
   1.61973  0.56382 -0.02896 -1.08446  0.013403  0.004709  0.006533     2.846
   1.63695  0.58089 -0.02675 -1.08028  0.014032  0.004844  0.005788     2.897
   1.65426  0.59806 -0.02449 -1.07612  0.014657  0.004978  0.005146     2.944
   1.67164  0.61529 -0.02221 -1.07206  0.015255  0.005109  0.004622     2.986
   1.68905  0.63255 -0.01994 -1.06814  0.015824  0.005238  0.004195     3.021
   1.70644  0.64979 -0.01769 -1.06440  0.016352  0.005362  0.003861     3.050
   1.72377  0.66698 -0.01547 -1.06084  0.016842  0.005483  0.003597     3.072
   1.74101  0.68409 -0.01330 -1.05747  0.017287  0.005599  0.003400     3.087
   1.75815  0.70109 -0.01119 -1.05431  0.017680  0.005711  0.003266     3.096
   1.77520  0.71802 -0.00917 -1.05137  0.018012  0.005818  0.003196     3.096
   1.79217  0.73488 -0.00723 -1.04866  0.018283  0.005919  0.003181     3.089
   1.80907  0.75168 -0.00538 -1.04621  0.018483  0.006015  0.003227     3.073
   1.82588  0.76841 -0.00365 -1.04400  0.018622  0.006105  0.003320     3.050
   1.84259  0.78504 -0.00203 -1.04211  0.018682  0.006187  0.003477     3.019
   1.85920  0.80157 -0.00054 -1.04055  0.018666  0.006261  0.003692     2.981
   1.87568  0.81800  0.00080 -1.03940  0.018561  0.006325  0.003982     2.935
   1.89204  0.83432  0.00198 -1.03873  0.018364  0.006377  0.004356     2.880
   1.90829  0.85054  0.00299 -1.03867  0.018065  0.006413  0.004831     2.817
   1.92442  0.86665  0.00381 -1.03934  0.017662  0.006431  0.005425     2.746
   1.94041  0.88262  0.00443 -1.04091  0.017159  0.006429  0.006151     2.669
   1.95619  0.89840  0.00486 -1.04359  0.016554  0.006400  0.007041     2.586
   1.97170  0.91391  0.00506 -1.04768  0.015840  0.006341  0.008141     2.498
   1.98685  0.92905  0.00502 -1.05362  0.015012  0.006243  0.009518     2.405
   2.00150  0.94370  0.00473 -1.06190  0.014071  0.006101  0.011259     2.306
   2.01546  0.95766  0.00418 -1.07317  0.013024  0.005907  0.013485     2.205
   2.02853  0.97070  0.00337 -1.08832  0.011878  0.005654  0.016392     2.101
   2.04056  0.98268  0.00230 -1.10856  0.010644  0.005335  0.020282     1.995
   2.05143  0.99347  0.00100 -1.13598  0.009320  0.004940  0.025738     1.887
   2.05803  1.00000  0.00000 -1.13587  0.009624  0.005006  0.024280     1.922
   2.05803  1.00010 -0.00002  1.13587  0.199792  0.010203  0.000000    19.582
   2.06467  1.00659 -0.00141  1.13336  0.195980  0.010687  0.000000    18.337
   2.07243  1.01423 -0.00274  1.13055  0.194390  0.011226  0.000000    17.316
   2.08150  1.02320 -0.00410  1.12725  0.192832  0.011860  0.000000    16.259
   2.09210  1.03370 -0.00553  1.12335  0.191178  0.012610  0.000000    15.161
   2.10448  1.04599 -0.00703  1.11874  0.189293  0.013500  0.000000    14.022
   2.11896  1.06038 -0.00860  1.11328  0.187065  0.014560  0.000000    12.848
   2.13587  1.07722 -0.01023  1.10679  0.184377  0.015824  0.000000    11.652
   2.15564  1.09692 -0.01190  1.09907  0.181091  0.017338  0.000000    10.445
   2.17875  1.11996 -0.01361  1.08980  0.177051  0.019166  0.000000     9.238
   2.20575  1.14691 -0.01533  1.07863  0.172066  0.021388  0.000000     8.045
   2.23731  1.17843 -0.01700  1.06514  0.165903  0.024092  0.000000     6.886
   2.27420  1.21528 -0.01859  1.04867  0.158320  0.027432  0.000000     5.771
   2.31730  1.25836 -0.02002  1.02794  0.149116  0.031695  0.000000     4.705
   2.36768  1.30873 -0.02120  1.00311  0.138048  0.036903  0.000000     3.741
   2.42656  1.36760 -0.02203  0.98071  0.124804  0.041659  0.000000     2.996
   2.49537  1.43641 -0.02236  0.96168  0.110028  0.045678  0.000000     2.409
   2.57580  1.51683 -0.02203  0.94964  0.094800  0.048152  0.000000     1.969
   2.66978  1.61081 -0.02082  0.94633  0.080671  0.048797  0.000000     1.653
   2.77963  1.72063 -0.01848  0.95059  0.068929  0.048027  0.000000     1.435
   2.90801  1.84895 -0.01471  0.95940  0.059974  0.046562  0.000000     1.288
   3.05804  1.99889 -0.00914  0.98489  0.050447  0.042777  0.000000     1.179
