#    s        x        y     Ue/Vinf    Dstar     Theta      Cf       H
   0.00000  1.00000  0.00000  1.10782  0.158048  0.005625 -0.000270    28.098
   0.00667  0.99364  0.00201  1.10772  0.154677  0.005643 -0.001105    27.409
   0.01801  0.98283  0.00544  1.10772  0.151171  0.005648 -0.001104    26.763
   0.03089  0.97055  0.00931  1.10773  0.147294  0.005653 -0.001104    26.056
   0.04491  0.95712  0.01335  1.10775  0.143267  0.005656 -0.001105    25.331
   0.05974  0.94286  0.01740  1.10780  0.139206  0.005656 -0.001106    24.611
   0.07527  0.92786  0.02141  1.10786  0.135155  0.005654 -0.001107    23.903
   0.09142  0.91220  0.02541  1.10795  0.131067  0.005651 -0.001109    23.194
   0.10802  0.89609  0.02942  1.10804  0.126916  0.005647 -0.001111    22.477
   0.12488  0.87971  0.03341  1.10814  0.122715  0.005642 -0.001113    21.751
   0.14188  0.86318  0.03738  1.10825  0.118479  0.005637 -0.001116    21.018
   0.15896  0.84656  0.04130  1.10836  0.114215  0.005632 -0.001119    20.281
   0.17607  0.82989  0.04517  1.10848  0.109935  0.005626 -0.001122    19.540
   0.19318  0.81321  0.04899  1.10860  0.105647  0.005621 -0.001125    18.797
   0.21029  0.79652  0.05273  1.10874  0.101356  0.005614 -0.001128    18.053
   0.22743  0.77978  0.05643  1.10889  0.097056  0.005607 -0.001132    17.308
   0.24453  0.76308  0.06007  1.10905  0.092746  0.005600 -0.001136    16.561
   0.26151  0.74647  0.06361  1.10922  0.088465  0.005592 -0.001141    15.819
   0.27839  0.72994  0.06704  1.10942  0.084239  0.005583 -0.001147    15.089
   0.29522  0.71344  0.07036  1.10964  0.080062  0.005572 -0.001153    14.369
   0.31203  0.69694  0.07357  1.10990  0.075942  0.005559 -0.001160    13.661
   0.32881  0.68046  0.07667  1.11020  0.071878  0.005544 -0.001168    12.965
   0.34552  0.66401  0.07965  1.11055  0.067887  0.005526 -0.001178    12.284
   0.36216  0.64761  0.08250  1.11096  0.063978  0.005506 -0.001189    11.620
   0.37877  0.63123  0.08521  1.11145  0.060170  0.005482 -0.001202    10.976
   0.39539  0.61480  0.08779  1.11202  0.056450  0.005454 -0.001217    10.350
   0.41202  0.59836  0.09025  1.11271  0.052808  0.005422 -0.001235     9.739
   0.42857  0.58198  0.09257  1.11351  0.049271  0.005386 -0.001256     9.149
   0.44503  0.56566  0.09473  1.11447  0.045856  0.005344 -0.001282     8.581
   0.46148  0.54933  0.09674  1.11561  0.042579  0.005296 -0.001312     8.039
   0.47798  0.53293  0.09860  1.11697  0.039409  0.005242 -0.001349     7.518
   0.49446  0.51655  0.10033  1.11860  0.036350  0.005181 -0.001394     7.016
   0.51082  0.50026  0.10190  1.12051  0.033431  0.005113 -0.001449     6.538
   0.52710  0.48404  0.10328  1.12280  0.030683  0.005037 -0.001514     6.092
   0.54339  0.46779  0.10449  1.12553  0.028096  0.004951 -0.001584     5.675
   0.55971  0.45151  0.10554  1.12879  0.025644  0.004855 -0.001624     5.282
   0.57600  0.43525  0.10643  1.13265  0.023340  0.004749 -0.001610     4.914
   0.59218  0.41907  0.10713  1.13717  0.021209  0.004633 -0.001466     4.577
   0.60829  0.40298  0.10765  1.14237  0.019256  0.004507 -0.001125     4.272
   0.62434  0.38693  0.10796  1.14820  0.017475  0.004374 -0.000532     3.995
   0.64042  0.37085  0.10808  1.15477  0.015869  0.004231  0.000329     3.751
   0.65651  0.35476  0.10800  1.16215  0.014411  0.004076  0.001477     3.535
   0.67249  0.33878  0.10774  1.17022  0.013089  0.003913  0.002924     3.345
   0.68825  0.32303  0.10727  1.17873  0.011917  0.003746  0.004628     3.181
   0.70393  0.30737  0.10654  1.18731  0.010931  0.003579  0.006396     3.054
   0.71975  0.29158  0.10557  1.19575  0.010093  0.003415  0.008165     2.956
   0.73559  0.27578  0.10439  1.20412  0.009301  0.003250  0.010237     2.862
   0.75115  0.26028  0.10302  1.21200  0.008568  0.003090  0.012605     2.773
   0.76650  0.24502  0.10139  1.21845  0.007978  0.002943  0.014726     2.711
   0.78192  0.22972  0.09944  1.22348  0.007502  0.002807  0.016477     2.673
   0.79744  0.21436  0.09725  1.22790  0.007036  0.002671  0.018459     2.634
   0.81279  0.19920  0.09484  1.23136  0.006588  0.002538  0.020664     2.596
   0.82793  0.18429  0.09217  1.23325  0.006193  0.002412  0.022739     2.567
   0.84302  0.16950  0.08922  1.23360  0.005845  0.002292  0.024569     2.550
   0.85806  0.15481  0.08599  1.23288  0.005508  0.002172  0.026453     2.536
   0.87291  0.14036  0.08253  1.23119  0.005167  0.002050  0.028647     2.520
   0.88737  0.12638  0.07886  1.22847  0.004793  0.001926  0.031867     2.489
   0.90140  0.11290  0.07496  1.22252  0.004484  0.001812  0.034400     2.475
   0.91519  0.09977  0.07076  1.21428  0.004221  0.001701  0.036050     2.481
   0.92848  0.08721  0.06643  1.20598  0.003899  0.001580  0.039356     2.467
   0.94079  0.07568  0.06209  1.19538  0.003533  0.001460  0.045186     2.420
   0.95221  0.06515  0.05767  1.17780  0.003296  0.001363  0.047843     2.417
   0.96284  0.05550  0.05322  1.15892  0.003104  0.001270  0.048620     2.444
   0.97241  0.04692  0.04898  1.14257  0.002830  0.001163  0.053173     2.434
   0.98081  0.03952  0.04501  1.12338  0.002557  0.001062  0.059398     2.408
   0.98816  0.03319  0.04127  1.09913  0.002332  0.000975  0.064730     2.392
   0.99463  0.02777  0.03774  1.07091  0.002130  0.000897  0.070167     2.376
   1.00034  0.02313  0.03441  1.03822  0.001949  0.000826  0.075510     2.360
   1.00542  0.01915  0.03125  1.00055  0.001787  0.000763  0.080721     2.342
   1.00996  0.01574  0.02825  0.95750  0.001648  0.000707  0.084665     2.331
   1.01405  0.01281  0.02541  0.90998  0.001524  0.000656  0.087463     2.325
   1.01775  0.01030  0.02269  0.85564  0.001389  0.000608  0.093818     2.284
   1.02112  0.00816  0.02007  0.79200  0.001321  0.000575  0.090091     2.298
   1.02423  0.00634  0.01756  0.72751  0.001224  0.000534  0.089991     2.290
   1.02710  0.00481  0.01513  0.65268  0.001127  0.000501  0.091085     2.249
   1.02975  0.00353  0.01281  0.56835  0.001095  0.000485  0.080989     2.258
   1.03221  0.00250  0.01057  0.48691  0.001038  0.000456  0.071957     2.276
   1.03452  0.00166  0.00842  0.39842  0.000946  0.000421  0.066352     2.246
   1.03670  0.00100  0.00634  0.29459  0.000913  0.000410  0.051883     2.224
   1.03878  0.00049  0.00433  0.18952  0.000893  0.000397  0.033267     2.252
   1.04077  0.00014  0.00237  0.07672  0.000799  0.000358  0.015364     2.230
   1.04268 -0.00001  0.00047 -0.04891  0.000799  0.000358  0.009794     2.230
   1.04452  0.00009 -0.00138 -0.19814  0.000684  0.000309  0.047022     2.213
   1.04638  0.00049 -0.00318 -0.34906  0.000734  0.000324  0.073666     2.265
   1.04830  0.00119 -0.00498 -0.48843  0.000758  0.000340  0.103357     2.227
   1.05035  0.00220 -0.00676 -0.60885  0.000849  0.000371  0.108605     2.290
   1.05254  0.00351 -0.00851 -0.70910  0.000920  0.000405  0.118734     2.271
   1.05487  0.00512 -0.01021 -0.78957  0.001039  0.000449  0.112198     2.317
   1.05738  0.00701 -0.01184 -0.84830  0.001178  0.000503  0.103836     2.342
   1.06008  0.00920 -0.01343 -0.89146  0.001336  0.000564  0.093618     2.370
   1.06301  0.01168 -0.01499 -0.92420  0.001500  0.000628  0.084918     2.388
   1.06622  0.01448 -0.01656 -0.95286  0.001647  0.000690  0.079917     2.386
   1.06978  0.01766 -0.01815 -0.97712  0.001817  0.000756  0.073081     2.402
   1.07377  0.02129 -0.01981 -0.99780  0.001995  0.000827  0.067163     2.414
   1.07825  0.02543 -0.02154 -1.01841  0.002150  0.000894  0.064232     2.405
   1.08332  0.03017 -0.02333 -1.03866  0.002316  0.000963  0.060868     2.404
   1.08907  0.03561 -0.02519 -1.05761  0.002502  0.001038  0.056982     2.411
   1.09564  0.04190 -0.02708 -1.07480  0.002711  0.001120  0.052841     2.422
   1.10320  0.04922 -0.02900 -1.08787  0.002988  0.001218  0.047030     2.452
   1.11196  0.05776 -0.03093 -1.09718  0.003305  0.001332  0.041618     2.481
   1.12207  0.06768 -0.03288 -1.10301  0.003669  0.001462  0.036541     2.510
   1.13350  0.07895 -0.03481 -1.10838  0.003998  0.001592  0.033680     2.511
   1.14613  0.09144 -0.03664 -1.11256  0.004356  0.001729  0.030722     2.520
   1.15994  0.10515 -0.03835 -1.11429  0.004777  0.001878  0.027314     2.544
   1.17469  0.11981 -0.03996 -1.11679  0.005109  0.002015  0.025850     2.535
   1.18993  0.13498 -0.04141 -1.11944  0.005429  0.002147  0.024543     2.529
   1.20552  0.15051 -0.04267 -1.12187  0.005747  0.002273  0.023269     2.528
   1.22143  0.16639 -0.04375 -1.12375  0.006072  0.002398  0.021959     2.532
   1.23764  0.18258 -0.04467 -1.12530  0.006390  0.002520  0.020817     2.536
   1.25400  0.19892 -0.04546 -1.12703  0.006670  0.002634  0.020044     2.533
   1.27036  0.21526 -0.04609 -1.12888  0.006928  0.002741  0.019427     2.528
   1.28677  0.23166 -0.04656 -1.13015  0.007214  0.002849  0.018584     2.533
   1.30335  0.24824 -0.04689 -1.13117  0.007496  0.002955  0.017815     2.537
   1.32002  0.26491 -0.04711 -1.13222  0.007755  0.003056  0.017227     2.537
   1.33663  0.28153 -0.04721 -1.13336  0.007991  0.003152  0.016774     2.535
   1.35321  0.29810 -0.04717 -1.13418  0.008243  0.003248  0.016224     2.538
   1.36986  0.31475 -0.04699 -1.13460  0.008514  0.003345  0.015590     2.545
   1.38656  0.33145 -0.04670 -1.13494  0.008772  0.003440  0.015058     2.550
   1.40323  0.34811 -0.04629 -1.13508  0.009030  0.003534  0.014539     2.555
   1.41985  0.36473 -0.04576 -1.13497  0.009296  0.003627  0.014008     2.563
   1.43647  0.38133 -0.04510 -1.13447  0.009584  0.003723  0.013409     2.574
   1.45309  0.39793 -0.04431 -1.13360  0.009890  0.003821  0.012781     2.588
   1.46972  0.41453 -0.04339 -1.13232  0.010219  0.003922  0.012109     2.606
   1.48633  0.43111 -0.04234 -1.13061  0.010576  0.004026  0.011400     2.627
   1.50291  0.44765 -0.04116 -1.12861  0.010943  0.004131  0.010718     2.649
   1.51945  0.46414 -0.03985 -1.12606  0.011364  0.004242  0.009935     2.679
   1.53596  0.48059 -0.03840 -1.12305  0.011831  0.004359  0.009110     2.714
   1.55247  0.49701 -0.03680 -1.11951  0.012365  0.004482  0.008211     2.759
   1.56903  0.51348 -0.03504 -1.11547  0.012976  0.004612  0.007256     2.814
   1.58574  0.53008 -0.03313 -1.11107  0.013651  0.004747  0.006305     2.876
   1.60264  0.54687 -0.03109 -1.10644  0.014379  0.004885  0.005401     2.943
   1.61973  0.56382 -0.02896 -1.10178  0.015132  0.005025  0.004597     3.012
   1.63695  0.58089 -0.02675 -1.09716  0.015893  0.005163  0.003899     3.078
   1.65426  0.59806 -0.02449 -1.09265  0.016651  0.005299  0.003305     3.142
   1.67164  0.61529 -0.02221 -1.08830  0.017390  0.005432  0.002813     3.202
   1.68905  0.63255 -0.01994 -1.08414  0.018093  0.005561  0.002419     3.253
   1.70644  0.64979 -0.01769 -1.08016  0.018757  0.005687  0.002104     3.298
   1.72377  0.66698 -0.01547 -1.07637  0.019378  0.005809  0.001857     3.336
   1.74101  0.68409 -0.01330 -1.07278  0.019949  0.005927  0.001668     3.366
   1.75815  0.70109 -0.01119 -1.06937  0.020460  0.006041  0.001534     3.387
   1.77520  0.71802 -0.00917 -1.06615  0.020899  0.006152  0.001455     3.397
   1.79217  0.73488 -0.00723 -1.06311  0.021264  0.006258  0.001423     3.398
   1.80907  0.75168 -0.00538 -1.06025  0.021552  0.006361  0.001437     3.388
   1.82588  0.76841 -0.00365 -1.05756  0.021762  0.006459  0.001493     3.369
   1.84259  0.78504 -0.00203 -1.05509  0.021880  0.006552  0.001598     3.339
   1.85920  0.80157 -0.00054 -1.05284  0.021906  0.006640  0.001752     3.299
   1.87568  0.81800  0.00080 -1.05085  0.021826  0.006720  0.001966     3.248
   1.89204  0.83432  0.00198 -1.04919  0.021637  0.006791  0.002247     3.186
   1.90829  0.85054  0.00299 -1.04794  0.021328  0.006851  0.002610     3.113
   1.92442  0.86665  0.00381 -1.04720  0.020895  0.006897  0.003072     3.030
   1.94041  0.88262  0.00443 -1.04710  0.020343  0.006924  0.003642     2.938
   1.95619  0.89840  0.00486 -1.04783  0.019668  0.006929  0.004347     2.838
   1.97170  0.91391  0.00506 -1.04966  0.018866  0.006905  0.005222     2.732
   1.98685  0.92905  0.00502 -1.05291  0.017931  0.006845  0.006316     2.619
   2.00150  0.94370  0.00473 -1.05802  0.016867  0.006742  0.007690     2.502
   2.01546  0.95766  0.00418 -1.06549  0.015687  0.006586  0.009422     2.382
   2.02853  0.97070  0.00337 -1.07597  0.014403  0.006372  0.011632     2.260
   2.04056  0.98268  0.00230 -1.09020  0.013041  0.006095  0.014479     2.140
   2.05143  0.99347  0.00100 -1.10920  0.011622  0.005751  0.018216     2.021
   2.05803  1.00000  0.00000 -1.10782  0.011978  0.005828  0.017174     2.055
   2.05803  1.00010 -0.00002  1.10782  0.170026  0.011453  0.000000    14.846
   2.06467  1.00659 -0.00141  1.10534  0.165775  0.011881  0.000000    13.953
   2.07243  1.01423 -0.00277  1.10260  0.163873  0.012350  0.000000    13.269
   2.08150  1.02319 -0.00417  1.09937  0.161988  0.012903  0.000000    12.554
   2.09210  1.03368 -0.00566  1.09553  0.159987  0.013559  0.000000    11.800
   2.10448  1.04596 -0.00724  1.09097  0.157730  0.014339  0.000000    11.000
   2.11896  1.06034 -0.00892  1.08552  0.155104  0.015271  0.000000    10.157
   2.13587  1.07716 -0.01069  1.07899  0.151990  0.016389  0.000000     9.274
   2.15564  1.09684 -0.01256  1.07115  0.148256  0.017735  0.000000     8.360
   2.17875  1.11987 -0.01453  1.06162  0.143749  0.019372  0.000000     7.420
   2.20575  1.14679 -0.01657  1.04993  0.138300  0.021389  0.000000     6.466
   2.23731  1.17828 -0.01866  1.03548  0.131712  0.023893  0.000000     5.513
   2.27420  1.21511 -0.02078  1.01710  0.123836  0.027103  0.000000     4.569
   2.31730  1.25816 -0.02289  0.99558  0.114459  0.030904  0.000000     3.704
   2.36768  1.30850 -0.02493  0.97611  0.103425  0.034351  0.000000     3.011
   2.42656  1.36735 -0.02684  0.95999  0.091226  0.037168  0.000000     2.454
   2.49537  1.43614 -0.02853  0.94957  0.078706  0.038926  0.000000     2.022
   2.57580  1.51655 -0.02988  0.94645  0.067027  0.039423  0.000000     1.700
   2.66978  1.61053 -0.03076  0.95009  0.057243  0.038886  0.000000     1.472
   2.77963  1.72038 -0.03102  0.95779  0.049798  0.037835  0.000000     1.316
   2.90801  1.84876 -0.03045  0.96665  0.044467  0.036715  0.000000     1.211
   3.05804  1.99878 -0.02881  0.98412  0.039394  0.034686  0.000000     1.136
