#    s        x        y     Ue/Vinf    Dstar     Theta      Cf       H
   0.00000  1.00000  0.00000  1.10342  0.153604  0.005689 -0.000268    27.000
   0.00667  0.99364  0.00201  1.10331  0.150239  0.005708 -0.001089    26.323
   0.01801  0.98283  0.00544  1.10331  0.146761  0.005713 -0.001089    25.690
   0.03089  0.97055  0.00931  1.10332  0.142923  0.005717 -0.001089    24.999
   0.04491  0.95712  0.01335  1.10335  0.138940  0.005720 -0.001089    24.292
   0.05974  0.94286  0.01740  1.10340  0.134931  0.005720 -0.001090    23.590
   0.07527  0.92786  0.02141  1.10347  0.130936  0.005718 -0.001092    22.900
   0.09142  0.91220  0.02541  1.10356  0.126908  0.005714 -0.001094    22.211
   0.10802  0.89609  0.02942  1.10366  0.122821  0.005709 -0.001096    21.515
   0.12488  0.87971  0.03341  1.10377  0.118688  0.005703 -0.001099    20.810
   0.14188  0.86318  0.03738  1.10388  0.114522  0.005698 -0.001102    20.100
   0.15896  0.84656  0.04130  1.10400  0.110332  0.005692 -0.001105    19.385
   0.17607  0.82989  0.04517  1.10413  0.106127  0.005685 -0.001108    18.667
   0.19318  0.81321  0.04899  1.10427  0.101917  0.005678 -0.001111    17.948
   0.21029  0.79652  0.05273  1.10443  0.097707  0.005671 -0.001115    17.230
   0.22743  0.77978  0.05643  1.10459  0.093489  0.005663 -0.001120    16.510
   0.24453  0.76308  0.06007  1.10477  0.089265  0.005654 -0.001124    15.788
   0.26151  0.74647  0.06361  1.10497  0.085071  0.005644 -0.001130    15.072
   0.27839  0.72994  0.06704  1.10519  0.080933  0.005633 -0.001136    14.368
   0.29522  0.71344  0.07036  1.10545  0.076849  0.005620 -0.001143    13.674
   0.31203  0.69694  0.07357  1.10574  0.072821  0.005605 -0.001151    12.992
   0.32881  0.68046  0.07667  1.10609  0.068855  0.005587 -0.001160    12.324
   0.34552  0.66401  0.07965  1.10649  0.064962  0.005567 -0.001171    11.669
   0.36216  0.64761  0.08250  1.10696  0.061155  0.005544 -0.001183    11.032
   0.37877  0.63123  0.08521  1.10751  0.057449  0.005516 -0.001197    10.414
   0.39539  0.61480  0.08779  1.10817  0.053832  0.005485 -0.001214     9.814
   0.41202  0.59836  0.09025  1.10895  0.050303  0.005449 -0.001235     9.231
   0.42857  0.58198  0.09257  1.10986  0.046874  0.005408 -0.001259     8.667
   0.44503  0.56566  0.09473  1.11094  0.043578  0.005362 -0.001287     8.127
   0.46148  0.54933  0.09674  1.11223  0.040414  0.005310 -0.001322     7.611
   0.47798  0.53293  0.09860  1.11377  0.037366  0.005251 -0.001363     7.117
   0.49446  0.51655  0.10033  1.11560  0.034424  0.005184 -0.001415     6.641
   0.51082  0.50026  0.10190  1.11775  0.031635  0.005110 -0.001476     6.191
   0.52710  0.48404  0.10328  1.12031  0.029003  0.005027 -0.001545     5.769
   0.54339  0.46779  0.10449  1.12337  0.026544  0.004935 -0.001593     5.379
   0.55971  0.45151  0.10554  1.12699  0.024232  0.004832 -0.001600     5.015
   0.57600  0.43525  0.10643  1.13123  0.022047  0.004719 -0.001503     4.672
   0.59218  0.41907  0.10713  1.13614  0.020044  0.004596 -0.001233     4.361
   0.60829  0.40298  0.10765  1.14167  0.018211  0.004466 -0.000734     4.078
   0.62434  0.38693  0.10796  1.14785  0.016552  0.004327  0.000024     3.825
   0.64042  0.37085  0.10808  1.15480  0.015063  0.004177  0.001036     3.606
   0.65651  0.35476  0.10800  1.16248  0.013715  0.004018  0.002312     3.414
   0.67249  0.33878  0.10774  1.17074  0.012490  0.003851  0.003871     3.243
   0.68825  0.32303  0.10727  1.17927  0.011407  0.003683  0.005655     3.097
   0.70393  0.30737  0.10654  1.18760  0.010511  0.003519  0.007419     2.987
   0.71975  0.29158  0.10557  1.19571  0.009729  0.003357  0.009227     2.898
   0.73559  0.27578  0.10439  1.20355  0.009001  0.003197  0.011263     2.815
   0.75115  0.26028  0.10302  1.21085  0.008314  0.003041  0.013637     2.734
   0.76650  0.24502  0.10139  1.21652  0.007771  0.002899  0.015668     2.680
   0.78192  0.22972  0.09944  1.22085  0.007316  0.002766  0.017430     2.645
   0.79744  0.21436  0.09725  1.22433  0.006887  0.002635  0.019268     2.613
   0.81279  0.19920  0.09484  1.22712  0.006446  0.002504  0.021570     2.574
   0.82793  0.18429  0.09217  1.22791  0.006086  0.002384  0.023416     2.553
   0.84302  0.16950  0.08922  1.22754  0.005743  0.002266  0.025298     2.535
   0.85806  0.15481  0.08599  1.22580  0.005428  0.002149  0.026992     2.526
   0.87291  0.14036  0.08253  1.22351  0.005077  0.002027  0.029463     2.505
   0.88737  0.12638  0.07886  1.21941  0.004730  0.001907  0.032345     2.480
   0.90140  0.11290  0.07496  1.21259  0.004425  0.001794  0.034894     2.466
   0.91519  0.09977  0.07076  1.20336  0.004160  0.001684  0.036686     2.470
   0.92848  0.08721  0.06643  1.19367  0.003849  0.001566  0.039839     2.458
   0.94079  0.07568  0.06209  1.18170  0.003492  0.001447  0.045505     2.413
   0.95221  0.06515  0.05767  1.16285  0.003260  0.001352  0.048060     2.411
   0.96284  0.05550  0.05322  1.14266  0.003059  0.001258  0.049330     2.431
   0.97241  0.04692  0.04898  1.12418  0.002807  0.001155  0.052920     2.430
   0.98081  0.03952  0.04501  1.10402  0.002529  0.001053  0.059457     2.400
   0.98816  0.03319  0.04127  1.07807  0.002307  0.000967  0.064655     2.385
   0.99463  0.02777  0.03774  1.04799  0.002107  0.000890  0.069918     2.368
   1.00034  0.02313  0.03441  1.01330  0.001930  0.000821  0.074923     2.353
   1.00542  0.01915  0.03125  0.97365  0.001773  0.000759  0.079621     2.337
   1.00996  0.01574  0.02825  0.92889  0.001637  0.000704  0.082995     2.327
   1.01405  0.01281  0.02541  0.87973  0.001513  0.000652  0.085713     2.319
   1.01775  0.01030  0.02269  0.82362  0.001383  0.000605  0.090686     2.284
   1.02112  0.00816  0.02007  0.75956  0.001313  0.000570  0.086697     2.301
   1.02423  0.00634  0.01756  0.69210  0.001201  0.000530  0.089131     2.267
   1.02710  0.00481  0.01513  0.61460  0.001140  0.000502  0.082975     2.272
   1.02975  0.00353  0.01281  0.53226  0.001066  0.000474  0.078624     2.248
   1.03221  0.00250  0.01057  0.44291  0.001027  0.000457  0.067827     2.248
   1.03452  0.00166  0.00842  0.35435  0.000965  0.000424  0.056226     2.278
   1.03670  0.00100  0.00634  0.25069  0.000887  0.000404  0.046690     2.193
   1.03878  0.00049  0.00433  0.14410  0.000954  0.000422  0.023473     2.261
   1.04077  0.00014  0.00237  0.03651  0.000763  0.000342  0.007690     2.230
   1.04268 -0.00001  0.00047 -0.10144  0.000763  0.000342  0.021279     2.230
   1.04452  0.00009 -0.00138 -0.25351  0.000695  0.000314  0.059269     2.213
   1.04638  0.00049 -0.00318 -0.40695  0.000722  0.000321  0.088271     2.252
   1.04830  0.00119 -0.00498 -0.54138  0.000776  0.000344  0.109374     2.254
   1.05035  0.00220 -0.00676 -0.65899  0.000845  0.000372  0.119961     2.271
   1.05254  0.00351 -0.00851 -0.75740  0.000931  0.000407  0.123507     2.288
   1.05487  0.00512 -0.01021 -0.83301  0.001051  0.000453  0.116371     2.323
   1.05738  0.00701 -0.01184 -0.88876  0.001190  0.000507  0.106969     2.349
   1.06008  0.00920 -0.01343 -0.92985  0.001347  0.000567  0.096361     2.375
   1.06301  0.01168 -0.01499 -0.96117  0.001509  0.000630  0.087378     2.393
   1.06622  0.01448 -0.01656 -0.98672  0.001672  0.000695  0.080027     2.404
   1.06978  0.01766 -0.01815 -1.00777  0.001849  0.000764  0.072853     2.419
   1.07377  0.02129 -0.01981 -1.02667  0.002020  0.000834  0.067725     2.422
   1.07825  0.02543 -0.02154 -1.04462  0.002191  0.000905  0.063561     2.422
   1.08332  0.03017 -0.02333 -1.06324  0.002348  0.000973  0.060979     2.412
   1.08907  0.03561 -0.02519 -1.08083  0.002534  0.001048  0.057090     2.418
   1.09564  0.04190 -0.02708 -1.09640  0.002750  0.001131  0.052614     2.431
   1.10320  0.04922 -0.02900 -1.10819  0.003025  0.001230  0.046928     2.460
   1.11196  0.05776 -0.03093 -1.11560  0.003361  0.001347  0.040932     2.496
   1.12207  0.06768 -0.03288 -1.12031  0.003718  0.001476  0.036258     2.519
   1.13350  0.07895 -0.03481 -1.12448  0.004054  0.001607  0.033278     2.522
   1.14613  0.09144 -0.03664 -1.12725  0.004426  0.001746  0.030142     2.535
   1.15994  0.10515 -0.03835 -1.12808  0.004843  0.001895  0.026935     2.556
   1.17469  0.11981 -0.03996 -1.12950  0.005188  0.002035  0.025350     2.549
   1.18993  0.13498 -0.04141 -1.13134  0.005508  0.002167  0.024126     2.542
   1.20552  0.15051 -0.04267 -1.13283  0.005838  0.002296  0.022765     2.543
   1.22143  0.16639 -0.04375 -1.13411  0.006160  0.002421  0.021571     2.544
   1.23764  0.18258 -0.04467 -1.13488  0.006491  0.002546  0.020350     2.550
   1.25400  0.19892 -0.04546 -1.13608  0.006769  0.002660  0.019650     2.545
   1.27036  0.21526 -0.04609 -1.13747  0.007026  0.002768  0.019071     2.539
   1.28677  0.23166 -0.04656 -1.13812  0.007328  0.002878  0.018155     2.546
   1.30335  0.24824 -0.04689 -1.13876  0.007606  0.002985  0.017453     2.548
   1.32002  0.26491 -0.04711 -1.13935  0.007873  0.003088  0.016844     2.550
   1.33663  0.28153 -0.04721 -1.14006  0.008115  0.003185  0.016390     2.548
   1.35321  0.29810 -0.04717 -1.14053  0.008369  0.003282  0.015857     2.550
   1.36986  0.31475 -0.04699 -1.14060  0.008644  0.003380  0.015231     2.557
   1.38656  0.33145 -0.04670 -1.14066  0.008902  0.003476  0.014724     2.561
   1.40323  0.34811 -0.04629 -1.14037  0.009179  0.003572  0.014149     2.569
   1.41985  0.36473 -0.04576 -1.13998  0.009446  0.003667  0.013641     2.576
   1.43647  0.38133 -0.04510 -1.13918  0.009742  0.003764  0.013039     2.588
   1.45309  0.39793 -0.04431 -1.13799  0.010059  0.003864  0.012396     2.603
   1.46972  0.41453 -0.04339 -1.13643  0.010398  0.003966  0.011726     2.622
   1.48633  0.43111 -0.04234 -1.13456  0.010752  0.004070  0.011058     2.642
   1.50291  0.44765 -0.04116 -1.13220  0.011150  0.004179  0.010313     2.668
   1.51945  0.46414 -0.03985 -1.12945  0.011580  0.004291  0.009549     2.698
   1.53596  0.48059 -0.03840 -1.12621  0.012066  0.004410  0.008715     2.736
   1.55247  0.49701 -0.03680 -1.12250  0.012615  0.004534  0.007828     2.782
   1.56903  0.51348 -0.03504 -1.11834  0.013240  0.004664  0.006893     2.839
   1.58574  0.53008 -0.03313 -1.11381  0.013943  0.004801  0.005941     2.904
   1.60264  0.54687 -0.03109 -1.10912  0.014694  0.004940  0.005053     2.974
   1.61973  0.56382 -0.02896 -1.10440  0.015469  0.005079  0.004263     3.045
   1.63695  0.58089 -0.02675 -1.09975  0.016256  0.005218  0.003579     3.116
   1.65426  0.59806 -0.02449 -1.09522  0.017043  0.005353  0.002993     3.184
   1.67164  0.61529 -0.02221 -1.09086  0.017810  0.005486  0.002510     3.246
   1.68905  0.63255 -0.01994 -1.08669  0.018539  0.005615  0.002124     3.302
   1.70644  0.64979 -0.01769 -1.08272  0.019230  0.005740  0.001817     3.350
   1.72377  0.66698 -0.01547 -1.07894  0.019876  0.005862  0.001576     3.391
   1.74101  0.68409 -0.01330 -1.07534  0.020474  0.005980  0.001390     3.424
   1.75815  0.70109 -0.01119 -1.07194  0.021007  0.006094  0.001259     3.447
   1.77520  0.71802 -0.00917 -1.06871  0.021467  0.006204  0.001180     3.460
   1.79217  0.73488 -0.00723 -1.06565  0.021854  0.006311  0.001146     3.463
   1.80907  0.75168 -0.00538 -1.06275  0.022159  0.006414  0.001156     3.455
   1.82588  0.76841 -0.00365 -1.06003  0.022385  0.006513  0.001205     3.437
   1.84259  0.78504 -0.00203 -1.05749  0.022516  0.006607  0.001301     3.408
   1.85920  0.80157 -0.00054 -1.05516  0.022552  0.006697  0.001443     3.368
   1.87568  0.81800  0.00080 -1.05307  0.022479  0.006779  0.001642     3.316
   1.89204  0.83432  0.00198 -1.05128  0.022294  0.006854  0.001906     3.253
   1.90829  0.85054  0.00299 -1.04985  0.021986  0.006918  0.002248     3.178
   1.92442  0.86665  0.00381 -1.04889  0.021549  0.006969  0.002683     3.092
   1.94041  0.88262  0.00443 -1.04852  0.020990  0.007002  0.003224     2.998
   1.95619  0.89840  0.00486 -1.04893  0.020305  0.007014  0.003894     2.895
   1.97170  0.91391  0.00506 -1.05037  0.019488  0.006998  0.004727     2.785
   1.98685  0.92905  0.00502 -1.05315  0.018535  0.006947  0.005769     2.668
   2.00150  0.94370  0.00473 -1.05770  0.017451  0.006852  0.007078     2.547
   2.01546  0.95766  0.00418 -1.06449  0.016248  0.006707  0.008724     2.423
   2.02853  0.97070  0.00337 -1.07413  0.014941  0.006503  0.010815     2.298
   2.04056  0.98268  0.00230 -1.08731  0.013556  0.006237  0.013492     2.174
   2.05143  0.99347  0.00100 -1.10487  0.012122  0.005905  0.016962     2.053
   2.05803  1.00000  0.00000 -1.10342  0.012482  0.005982  0.016002     2.087
   2.05803  1.00010 -0.00002  1.10342  0.166087  0.011671  0.000000    14.231
   2.06467  1.00659 -0.00141  1.10095  0.161773  0.012091  0.000000    13.380
   2.07243  1.01423 -0.00277  1.09823  0.159825  0.012550  0.000000    12.735
   2.08150  1.02318 -0.00418  1.09502  0.157893  0.013091  0.000000    12.061
   2.09210  1.03368 -0.00568  1.09120  0.155843  0.013732  0.000000    11.349
   2.10448  1.04596 -0.00727  1.08666  0.153534  0.014496  0.000000    10.591
   2.11896  1.06033 -0.00896  1.08123  0.150853  0.015409  0.000000     9.790
   2.13587  1.07715 -0.01076  1.07471  0.147682  0.016504  0.000000     8.948
   2.15564  1.09683 -0.01266  1.06687  0.143889  0.017825  0.000000     8.072
   2.17875  1.11985 -0.01466  1.05733  0.139326  0.019433  0.000000     7.169
   2.20575  1.14678 -0.01675  1.04558  0.133825  0.021420  0.000000     6.248
   2.23731  1.17826 -0.01891  1.03098  0.127201  0.023896  0.000000     5.323
   2.27420  1.21508 -0.02111  1.01228  0.119323  0.027096  0.000000     4.404
   2.31730  1.25813 -0.02333  0.99153  0.109935  0.030675  0.000000     3.584
   2.36768  1.30846 -0.02550  0.97291  0.099008  0.033886  0.000000     2.922
   2.42656  1.36731 -0.02757  0.95786  0.087060  0.036437  0.000000     2.389
   2.49537  1.43609 -0.02946  0.94867  0.074954  0.037936  0.000000     1.976
   2.57580  1.51650 -0.03107  0.94670  0.063821  0.038239  0.000000     1.669
   2.66978  1.61048 -0.03227  0.95108  0.054620  0.037616  0.000000     1.452
   2.77963  1.72032 -0.03292  0.95901  0.047685  0.036576  0.000000     1.304
   2.90801  1.84870 -0.03283  0.96773  0.042743  0.035514  0.000000     1.204
   3.05804  1.99873 -0.03179  0.98428  0.038089  0.033658  0.000000     1.132
