#    s        x        y     Ue/Vinf    Dstar     Theta      Cf       H
   0.00000  1.00000  0.00000  1.06904  0.119859  0.006208 -0.000251    19.307
   0.00667  0.99364  0.00201  1.06891  0.116516  0.006227 -0.000979    18.711
   0.01801  0.98283  0.00544  1.06892  0.113286  0.006230 -0.000980    18.184
   0.03089  0.97055  0.00931  1.06896  0.109771  0.006231 -0.000981    17.616
   0.04491  0.95712  0.01335  1.06903  0.106174  0.006230 -0.000983    17.043
   0.05974  0.94286  0.01740  1.06913  0.102599  0.006225 -0.000986    16.483
   0.07527  0.92786  0.02141  1.06928  0.099080  0.006216 -0.000989    15.939
   0.09142  0.91220  0.02541  1.06945  0.095568  0.006205 -0.000993    15.402
   0.10802  0.89609  0.02942  1.06966  0.092029  0.006192 -0.000998    14.863
   0.12488  0.87971  0.03341  1.06989  0.088471  0.006177 -0.001003    14.322
   0.14188  0.86318  0.03738  1.07014  0.084906  0.006161 -0.001008    13.781
   0.15896  0.84656  0.04130  1.07043  0.081338  0.006143 -0.001015    13.240
   0.17607  0.82989  0.04517  1.07074  0.077777  0.006124 -0.001022    12.700
   0.19318  0.81321  0.04899  1.07108  0.074231  0.006103 -0.001029    12.162
   0.21029  0.79652  0.05273  1.07147  0.070706  0.006081 -0.001038    11.628
   0.22743  0.77978  0.05643  1.07190  0.067194  0.006056 -0.001048    11.096
   0.24453  0.76308  0.06007  1.07239  0.063695  0.006028 -0.001059    10.566
   0.26151  0.74647  0.06361  1.07294  0.060243  0.005998 -0.001072    10.043
   0.27839  0.72994  0.06704  1.07356  0.056866  0.005965 -0.001086     9.533
   0.29522  0.71344  0.07036  1.07428  0.053563  0.005929 -0.001103     9.035
   0.31203  0.69694  0.07357  1.07510  0.050334  0.005888 -0.001123     8.549
   0.32881  0.68046  0.07667  1.07606  0.047189  0.005842 -0.001146     8.077
   0.34552  0.66401  0.07965  1.07717  0.044137  0.005791 -0.001173     7.621
   0.36216  0.64761  0.08250  1.07845  0.041189  0.005736 -0.001205     7.181
   0.37877  0.63123  0.08521  1.07994  0.038362  0.005673 -0.001244     6.762
   0.39539  0.61480  0.08779  1.08169  0.035651  0.005605 -0.001289     6.361
   0.41202  0.59836  0.09025  1.08372  0.033038  0.005529 -0.001342     5.976
   0.42857  0.58198  0.09257  1.08608  0.030549  0.005445 -0.001393     5.610
   0.44503  0.56566  0.09473  1.08883  0.028202  0.005354 -0.001421     5.268
   0.46148  0.54933  0.09674  1.09201  0.026006  0.005253 -0.001413     4.950
   0.47798  0.53293  0.09860  1.09569  0.023941  0.005144 -0.001325     4.654
   0.49446  0.51655  0.10033  1.09989  0.021991  0.005026 -0.001110     4.376
   0.51082  0.50026  0.10190  1.10455  0.020190  0.004901 -0.000734     4.120
   0.52710  0.48404  0.10328  1.10967  0.018547  0.004770 -0.000178     3.889
   0.54339  0.46779  0.10449  1.11536  0.017065  0.004629  0.000548     3.686
   0.55971  0.45151  0.10554  1.12162  0.015711  0.004480  0.001452     3.507
   0.57600  0.43525  0.10643  1.12840  0.014459  0.004324  0.002558     3.344
   0.59218  0.41907  0.10713  1.13549  0.013350  0.004164  0.003788     3.206
   0.60829  0.40298  0.10765  1.14274  0.012358  0.004002  0.005141     3.088
   0.62434  0.38693  0.10796  1.14996  0.011480  0.003843  0.006568     2.988
   0.64042  0.37085  0.10808  1.15700  0.010694  0.003685  0.008072     2.902
   0.65651  0.35476  0.10800  1.16365  0.009997  0.003531  0.009601     2.831
   0.67249  0.33878  0.10774  1.17000  0.009330  0.003380  0.011354     2.760
   0.68825  0.32303  0.10727  1.17552  0.008739  0.003236  0.013139     2.700
   0.70393  0.30737  0.10654  1.17988  0.008241  0.003103  0.014755     2.656
   0.71975  0.29158  0.10557  1.18313  0.007816  0.002976  0.016160     2.626
   0.73559  0.27578  0.10439  1.18599  0.007369  0.002848  0.017953     2.588
   0.75115  0.26028  0.10302  1.18791  0.006930  0.002722  0.020049     2.546
   0.76650  0.24502  0.10139  1.18789  0.006563  0.002609  0.021862     2.516
   0.78192  0.22972  0.09944  1.18587  0.006277  0.002505  0.023076     2.506
   0.79744  0.21436  0.09725  1.18318  0.005976  0.002399  0.024550     2.491
   0.81279  0.19920  0.09484  1.17970  0.005646  0.002289  0.026595     2.467
   0.82793  0.18429  0.09217  1.17390  0.005376  0.002189  0.028095     2.456
   0.84302  0.16950  0.08922  1.16667  0.005118  0.002089  0.029511     2.450
   0.85806  0.15481  0.08599  1.15821  0.004853  0.001986  0.031108     2.444
   0.87291  0.14036  0.08253  1.14831  0.004583  0.001881  0.032912     2.436
   0.88737  0.12638  0.07886  1.13695  0.004265  0.001771  0.036000     2.409
   0.90140  0.11290  0.07496  1.12120  0.004027  0.001674  0.037710     2.406
   0.91519  0.09977  0.07076  1.10345  0.003796  0.001574  0.039133     2.412
   0.92848  0.08721  0.06643  1.08458  0.003516  0.001464  0.041963     2.401
   0.94079  0.07568  0.06209  1.06220  0.003203  0.001356  0.046892     2.362
   0.95221  0.06515  0.05767  1.03236  0.002999  0.001270  0.048681     2.362
   0.96284  0.05550  0.05322  1.00079  0.002805  0.001182  0.049980     2.372
   0.97241  0.04692  0.04898  0.96932  0.002585  0.001089  0.052410     2.374
   0.98081  0.03952  0.04501  0.93588  0.002342  0.000995  0.057010     2.353
   0.98816  0.03319  0.04127  0.89699  0.002142  0.000914  0.060331     2.343
   0.99463  0.02777  0.03774  0.85306  0.001948  0.000841  0.064755     2.316
   1.00034  0.02313  0.03441  0.80310  0.001813  0.000781  0.065224     2.320
   1.00542  0.01915  0.03125  0.74986  0.001654  0.000721  0.068540     2.292
   1.00996  0.01574  0.02825  0.69026  0.001550  0.000673  0.066708     2.302
   1.01405  0.01281  0.02541  0.62825  0.001417  0.000619  0.067270     2.288
   1.01775  0.01030  0.02269  0.55641  0.001301  0.000576  0.066558     2.260
   1.02112  0.00816  0.02007  0.47552  0.001234  0.000548  0.060339     2.254
   1.02423  0.00634  0.01756  0.39199  0.001170  0.000519  0.052303     2.256
   1.02710  0.00481  0.01513  0.30611  0.001072  0.000472  0.043866     2.274
   1.02975  0.00353  0.01281  0.20426  0.000981  0.000444  0.034009     2.207
   1.03221  0.00250  0.01057  0.10101  0.001066  0.000477  0.015116     2.233
   1.03452  0.00166  0.00842  0.00384  0.000883  0.000396  0.000695     2.230
   1.03670  0.00100  0.00634 -0.11409  0.000883  0.000396  0.020674     2.230
   1.03878  0.00049  0.00433 -0.23767  0.000827  0.000373  0.046552     2.215
   1.04077  0.00014  0.00237 -0.37760  0.000765  0.000346  0.080265     2.212
   1.04268 -0.00001  0.00047 -0.53101  0.000722  0.000326  0.119426     2.213
   1.04452  0.00009 -0.00138 -0.69615  0.000689  0.000311  0.164175     2.212
   1.04638  0.00049 -0.00318 -0.85433  0.000707  0.000315  0.190139     2.248
   1.04830  0.00119 -0.00498 -0.97554  0.000793  0.000344  0.183472     2.306
   1.05035  0.00220 -0.00676 -1.07091  0.000873  0.000379  0.182797     2.307
   1.05254  0.00351 -0.00851 -1.14383  0.000987  0.000421  0.166267     2.347
   1.05487  0.00512 -0.01021 -1.19743  0.001108  0.000468  0.151963     2.369
   1.05738  0.00701 -0.01184 -1.22820  0.001292  0.000529  0.124457     2.440
   1.06008  0.00920 -0.01343 -1.24414  0.001485  0.000598  0.104947     2.482
   1.06301  0.01168 -0.01499 -1.25369  0.001674  0.000669  0.091682     2.503
   1.06622  0.01448 -0.01656 -1.25943  0.001871  0.000742  0.080678     2.523
   1.06978  0.01766 -0.01815 -1.26235  0.002081  0.000818  0.071199     2.542
   1.07377  0.02129 -0.01981 -1.26393  0.002292  0.000898  0.063972     2.553
   1.07825  0.02543 -0.02154 -1.26645  0.002482  0.000976  0.059874     2.543
   1.08332  0.03017 -0.02333 -1.26947  0.002679  0.001057  0.055996     2.536
   1.08907  0.03561 -0.02519 -1.27200  0.002901  0.001142  0.051615     2.540
   1.09564  0.04190 -0.02708 -1.27321  0.003158  0.001237  0.046765     2.553
   1.10320  0.04922 -0.02900 -1.27200  0.003472  0.001345  0.041200     2.581
   1.11196  0.05776 -0.03093 -1.26750  0.003861  0.001471  0.035140     2.624
   1.12207  0.06768 -0.03288 -1.26117  0.004277  0.001611  0.030404     2.656
   1.13350  0.07895 -0.03481 -1.25446  0.004689  0.001756  0.027113     2.670
   1.14613  0.09144 -0.03664 -1.24703  0.005138  0.001910  0.024007     2.690
   1.15994  0.10515 -0.03835 -1.23900  0.005619  0.002072  0.021216     2.713
   1.17469  0.11981 -0.03996 -1.23202  0.006039  0.002227  0.019668     2.711
   1.18993  0.13498 -0.04141 -1.22628  0.006413  0.002375  0.018669     2.701
   1.20552  0.15051 -0.04267 -1.22099  0.006799  0.002519  0.017559     2.700
   1.22143  0.16639 -0.04375 -1.21611  0.007179  0.002659  0.016548     2.700
   1.23764  0.18258 -0.04467 -1.21144  0.007561  0.002796  0.015577     2.704
   1.25400  0.19892 -0.04546 -1.20752  0.007894  0.002925  0.014971     2.699
   1.27036  0.21526 -0.04609 -1.20410  0.008207  0.003048  0.014466     2.693
   1.28677  0.23166 -0.04656 -1.20063  0.008547  0.003170  0.013794     2.696
   1.30335  0.24824 -0.04689 -1.19720  0.008892  0.003291  0.013128     2.702
   1.32002  0.26491 -0.04711 -1.19409  0.009208  0.003407  0.012634     2.702
   1.33663  0.28153 -0.04721 -1.19121  0.009510  0.003519  0.012204     2.702
   1.35321  0.29810 -0.04717 -1.18817  0.009844  0.003632  0.011645     2.710
   1.36986  0.31475 -0.04699 -1.18505  0.010188  0.003745  0.011079     2.721
   1.38656  0.33145 -0.04670 -1.18197  0.010527  0.003856  0.010569     2.730
   1.40323  0.34811 -0.04629 -1.17883  0.010877  0.003967  0.010048     2.742
   1.41985  0.36473 -0.04576 -1.17548  0.011259  0.004080  0.009462     2.760
   1.43647  0.38133 -0.04510 -1.17199  0.011660  0.004194  0.008869     2.780
   1.45309  0.39793 -0.04431 -1.16824  0.012103  0.004311  0.008214     2.808
   1.46972  0.41453 -0.04339 -1.16431  0.012577  0.004430  0.007550     2.839
   1.48633  0.43111 -0.04234 -1.16014  0.013101  0.004553  0.006842     2.878
   1.50291  0.44765 -0.04116 -1.15578  0.013670  0.004678  0.006123     2.923
   1.51945  0.46414 -0.03985 -1.15123  0.014304  0.004806  0.005372     2.976
   1.53596  0.48059 -0.03840 -1.14653  0.015005  0.004937  0.004610     3.039
   1.55247  0.49701 -0.03680 -1.14168  0.015808  0.005071  0.003809     3.117
   1.56903  0.51348 -0.03504 -1.13679  0.016702  0.005207  0.003022     3.208
   1.58574  0.53008 -0.03313 -1.13193  0.017695  0.005343  0.002264     3.312
   1.60264  0.54687 -0.03109 -1.12721  0.018761  0.005476  0.001582     3.426
   1.61973  0.56382 -0.02896 -1.12271  0.019869  0.005607  0.001001     3.544
   1.63695  0.58089 -0.02675 -1.11846  0.021001  0.005732  0.000522     3.663
   1.65426  0.59806 -0.02449 -1.11445  0.022144  0.005854  0.000135     3.783
   1.67164  0.61529 -0.02221 -1.11069  0.023267  0.005970 -0.000162     3.897
   1.68905  0.63255 -0.01994 -1.10714  0.024358  0.006083 -0.000387     4.004
   1.70644  0.64979 -0.01769 -1.10378  0.025402  0.006192 -0.000552     4.102
   1.72377  0.66698 -0.01547 -1.10061  0.026396  0.006298 -0.000673     4.191
   1.74101  0.68409 -0.01330 -1.09760  0.027330  0.006402 -0.000758     4.269
   1.75815  0.70109 -0.01119 -1.09473  0.028187  0.006502 -0.000814     4.335
   1.77520  0.71802 -0.00917 -1.09199  0.028955  0.006601 -0.000849     4.387
   1.79217  0.73488 -0.00723 -1.08937  0.029630  0.006697 -0.000866     4.424
   1.80907  0.75168 -0.00538 -1.08685  0.030204  0.006792 -0.000870     4.447
   1.82588  0.76841 -0.00365 -1.08441  0.030676  0.006884 -0.000863     4.456
   1.84259  0.78504 -0.00203 -1.08205  0.031027  0.006976 -0.000844     4.448
   1.85920  0.80157 -0.00054 -1.07976  0.031256  0.007066 -0.000813     4.424
   1.87568  0.81800  0.00080 -1.07752  0.031347  0.007154 -0.000769     4.381
   1.89204  0.83432  0.00198 -1.07534  0.031291  0.007242 -0.000706     4.321
   1.90829  0.85054  0.00299 -1.07320  0.031078  0.007328 -0.000618     4.241
   1.92442  0.86665  0.00381 -1.07109  0.030700  0.007414 -0.000497     4.141
   1.94041  0.88262  0.00443 -1.06905  0.030161  0.007498 -0.000331     4.023
   1.95619  0.89840  0.00486 -1.06710  0.029454  0.007578 -0.000104     3.887
   1.97170  0.91391  0.00506 -1.06535  0.028574  0.007651  0.000204     3.735
   1.98685  0.92905  0.00502 -1.06392  0.027518  0.007712  0.000620     3.568
   2.00150  0.94370  0.00473 -1.06302  0.026295  0.007753  0.001172     3.391
   2.01546  0.95766  0.00418 -1.06293  0.024925  0.007766  0.001887     3.209
   2.02853  0.97070  0.00337 -1.06396  0.023441  0.007741  0.002790     3.028
   2.04056  0.98268  0.00230 -1.06638  0.021890  0.007673  0.003896     2.853
   2.05143  0.99347  0.00100 -1.07033  0.020348  0.007560  0.005191     2.692
   2.05803  1.00000  0.00000 -1.06904  0.020752  0.007617  0.004883     2.724
   2.05803  1.00010 -0.00002  1.06904  0.140611  0.013825  0.000000    10.171
   2.06467  1.00659 -0.00142  1.06659  0.135747  0.014208  0.000000     9.554
   2.07243  1.01422 -0.00281  1.06391  0.133420  0.014618  0.000000     9.127
   2.08150  1.02317 -0.00427  1.06074  0.131100  0.015102  0.000000     8.681
   2.09210  1.03365 -0.00584  1.05696  0.128650  0.015675  0.000000     8.208
   2.10448  1.04592 -0.00753  1.05244  0.125927  0.016358  0.000000     7.698
   2.11896  1.06028 -0.00936  1.04699  0.122820  0.017179  0.000000     7.150
   2.13587  1.07708 -0.01134  1.04037  0.119220  0.018170  0.000000     6.561
   2.15564  1.09673 -0.01348  1.03228  0.115012  0.019379  0.000000     5.935
   2.17875  1.11972 -0.01580  1.02210  0.110086  0.020895  0.000000     5.269
   2.20575  1.14661 -0.01829  1.00917  0.104329  0.022818  0.000000     4.572
   2.23731  1.17806 -0.02097  0.99362  0.097610  0.025135  0.000000     3.883
   2.27420  1.21483 -0.02384  0.97881  0.089750  0.027333  0.000000     3.284
   2.31730  1.25783 -0.02690  0.96526  0.080931  0.029315  0.000000     2.761
   2.36768  1.30810 -0.03014  0.95461  0.071504  0.030829  0.000000     2.319
   2.42656  1.36688 -0.03356  0.94859  0.062071  0.031647  0.000000     1.961
   2.49537  1.43560 -0.03714  0.94817  0.053399  0.031701  0.000000     1.684
   2.57580  1.51594 -0.04085  0.95268  0.046132  0.031166  0.000000     1.480
   2.66978  1.60985 -0.04468  0.96001  0.040526  0.030364  0.000000     1.335
   2.77963  1.71962 -0.04858  0.96790  0.036430  0.029558  0.000000     1.232
   2.90801  1.84794 -0.05250  0.97505  0.033517  0.028871  0.000000     1.161
   3.05804  1.99793 -0.05639  0.98634  0.030878  0.027848  0.000000     1.109
