#    s        x        y     Ue/Vinf    Dstar     Theta      Cf       H
   0.00000  1.00000  0.00000  1.06741  0.117537  0.006244 -0.000251    18.825
   0.00667  0.99364  0.00201  1.06727  0.114195  0.006263 -0.000973    18.234
   0.01801  0.98283  0.00544  1.06729  0.110988  0.006265 -0.000974    17.715
   0.03089  0.97055  0.00931  1.06733  0.107503  0.006266 -0.000976    17.156
   0.04491  0.95712  0.01335  1.06741  0.103941  0.006264 -0.000978    16.593
   0.05974  0.94286  0.01740  1.06752  0.100405  0.006258 -0.000981    16.043
   0.07527  0.92786  0.02141  1.06767  0.096927  0.006249 -0.000984    15.510
   0.09142  0.91220  0.02541  1.06786  0.093461  0.006237 -0.000988    14.985
   0.10802  0.89609  0.02942  1.06808  0.089968  0.006223 -0.000993    14.458
   0.12488  0.87971  0.03341  1.06832  0.086460  0.006207 -0.000998    13.929
   0.14188  0.86318  0.03738  1.06860  0.082945  0.006190 -0.001004    13.400
   0.15896  0.84656  0.04130  1.06890  0.079429  0.006171 -0.001011    12.871
   0.17607  0.82989  0.04517  1.06923  0.075921  0.006151 -0.001018    12.344
   0.19318  0.81321  0.04899  1.06960  0.072430  0.006128 -0.001027    11.819
   0.21029  0.79652  0.05273  1.07001  0.068959  0.006104 -0.001036    11.297
   0.22743  0.77978  0.05643  1.07048  0.065504  0.006077 -0.001046    10.779
   0.24453  0.76308  0.06007  1.07100  0.062063  0.006048 -0.001058    10.261
   0.26151  0.74647  0.06361  1.07159  0.058669  0.006016 -0.001072     9.751
   0.27839  0.72994  0.06704  1.07226  0.055353  0.005981 -0.001087     9.254
   0.29522  0.71344  0.07036  1.07302  0.052110  0.005942 -0.001105     8.769
   0.31203  0.69694  0.07357  1.07391  0.048945  0.005899 -0.001126     8.297
   0.32881  0.68046  0.07667  1.07493  0.045862  0.005851 -0.001151     7.839
   0.34552  0.66401  0.07965  1.07612  0.042875  0.005798 -0.001180     7.395
   0.36216  0.64761  0.08250  1.07749  0.039992  0.005739 -0.001215     6.969
   0.37877  0.63123  0.08521  1.07908  0.037231  0.005674 -0.001256     6.562
   0.39539  0.61480  0.08779  1.08094  0.034584  0.005602 -0.001304     6.174
   0.41202  0.59836  0.09025  1.08310  0.032041  0.005522 -0.001357     5.802
   0.42857  0.58198  0.09257  1.08561  0.029621  0.005436 -0.001398     5.449
   0.44503  0.56566  0.09473  1.08851  0.027344  0.005341 -0.001413     5.120
   0.46148  0.54933  0.09674  1.09187  0.025216  0.005237 -0.001375     4.815
   0.47798  0.53293  0.09860  1.09574  0.023219  0.005124 -0.001241     4.532
   0.49446  0.51655  0.10033  1.10010  0.021337  0.005002 -0.000966     4.265
   0.51082  0.50026  0.10190  1.10490  0.019601  0.004876 -0.000520     4.020
   0.52710  0.48404  0.10328  1.11019  0.018026  0.004741  0.000101     3.802
   0.54339  0.46779  0.10449  1.11605  0.016603  0.004598  0.000887     3.611
   0.55971  0.45151  0.10554  1.12244  0.015304  0.004447  0.001842     3.442
   0.57600  0.43525  0.10643  1.12929  0.014106  0.004289  0.002987     3.289
   0.59218  0.41907  0.10713  1.13640  0.013044  0.004128  0.004249     3.160
   0.60829  0.40298  0.10765  1.14359  0.012097  0.003967  0.005613     3.049
   0.62434  0.38693  0.10796  1.15068  0.011256  0.003809  0.007050     2.955
   0.64042  0.37085  0.10808  1.15750  0.010509  0.003653  0.008527     2.876
   0.65651  0.35476  0.10800  1.16396  0.009834  0.003502  0.010067     2.808
   0.67249  0.33878  0.10774  1.17004  0.009189  0.003352  0.011821     2.741
   0.68825  0.32303  0.10727  1.17522  0.008623  0.003212  0.013563     2.685
   0.70393  0.30737  0.10654  1.17928  0.008137  0.003080  0.015183     2.642
   0.71975  0.29158  0.10557  1.18215  0.007728  0.002956  0.016552     2.614
   0.73559  0.27578  0.10439  1.18464  0.007296  0.002829  0.018302     2.579
   0.75115  0.26028  0.10302  1.18627  0.006859  0.002705  0.020444     2.536
   0.76650  0.24502  0.10139  1.18574  0.006511  0.002594  0.022136     2.510
   0.78192  0.22972  0.09944  1.18337  0.006233  0.002492  0.023304     2.501
   0.79744  0.21436  0.09725  1.18048  0.005925  0.002385  0.024890     2.484
   0.81279  0.19920  0.09484  1.17644  0.005612  0.002278  0.026772     2.463
   0.82793  0.18429  0.09217  1.17039  0.005339  0.002178  0.028333     2.452
   0.84302  0.16950  0.08922  1.16278  0.005081  0.002078  0.029803     2.445
   0.85806  0.15481  0.08599  1.15372  0.004827  0.001978  0.031240     2.441
   0.87291  0.14036  0.08253  1.14350  0.004556  0.001873  0.033073     2.433
   0.88737  0.12638  0.07886  1.13169  0.004241  0.001763  0.036154     2.406
   0.90140  0.11290  0.07496  1.11544  0.004005  0.001666  0.037812     2.403
   0.91519  0.09977  0.07076  1.09721  0.003775  0.001567  0.039230     2.409
   0.92848  0.08721  0.06643  1.07777  0.003491  0.001457  0.042241     2.396
   0.94079  0.07568  0.06209  1.05435  0.003189  0.001351  0.046823     2.361
   0.95221  0.06515  0.05767  1.02382  0.002978  0.001265  0.048992     2.354
   0.96284  0.05550  0.05322  0.99098  0.002804  0.001181  0.049407     2.374
   0.97241  0.04692  0.04898  0.95953  0.002572  0.001085  0.052319     2.371
   0.98081  0.03952  0.04501  0.92518  0.002332  0.000992  0.056732     2.350
   0.98816  0.03319  0.04127  0.88546  0.002134  0.000912  0.059962     2.340
   0.99463  0.02777  0.03774  0.84128  0.001949  0.000839  0.063318     2.324
   1.00034  0.02313  0.03441  0.79101  0.001785  0.000775  0.066246     2.304
   1.00542  0.01915  0.03125  0.73539  0.001662  0.000721  0.066098     2.305
   1.00996  0.01574  0.02825  0.67601  0.001525  0.000667  0.067435     2.285
   1.01405  0.01281  0.02541  0.61019  0.001421  0.000622  0.065370     2.285
   1.01775  0.01030  0.02269  0.53894  0.001309  0.000577  0.063744     2.266
   1.02112  0.00816  0.02007  0.45836  0.001228  0.000547  0.058868     2.246
   1.02423  0.00634  0.01756  0.37524  0.001170  0.000514  0.049212     2.276
   1.02710  0.00481  0.01513  0.28663  0.001042  0.000463  0.043224     2.250
   1.02975  0.00353  0.01281  0.18122  0.000990  0.000445  0.029407     2.225
   1.03221  0.00250  0.01057  0.07695  0.001015  0.000455  0.012124     2.230
   1.03452  0.00166  0.00842 -0.01739  0.001015  0.000455  0.002745     2.230
   1.03670  0.00100  0.00634 -0.12874  0.000853  0.000385  0.024348     2.220
   1.03878  0.00049  0.00433 -0.26503  0.000784  0.000353  0.054574     2.220
   1.04077  0.00014  0.00237 -0.40385  0.000778  0.000348  0.082729     2.233
   1.04268 -0.00001  0.00047 -0.55450  0.000723  0.000329  0.126207     2.198
   1.04452  0.00009 -0.00138 -0.72698  0.000678  0.000307  0.175254     2.206
   1.04638  0.00049 -0.00318 -0.88380  0.000712  0.000315  0.192983     2.262
   1.04830  0.00119 -0.00498 -1.00167  0.000796  0.000345  0.188006     2.305
   1.05035  0.00220 -0.00676 -1.09453  0.000880  0.000381  0.184174     2.314
   1.05254  0.00351 -0.00851 -1.16845  0.000982  0.000420  0.172236     2.338
   1.05487  0.00512 -0.01021 -1.21814  0.001125  0.000471  0.149155     2.389
   1.05738  0.00701 -0.01184 -1.24842  0.001291  0.000530  0.127465     2.433
   1.06008  0.00920 -0.01343 -1.26361  0.001492  0.000600  0.105457     2.488
   1.06301  0.01168 -0.01499 -1.27196  0.001684  0.000670  0.091695     2.512
   1.06622  0.01448 -0.01656 -1.27644  0.001885  0.000744  0.080322     2.533
   1.06978  0.01766 -0.01815 -1.27795  0.002101  0.000822  0.070403     2.555
   1.07377  0.02129 -0.01981 -1.27830  0.002315  0.000902  0.063185     2.565
   1.07825  0.02543 -0.02154 -1.28014  0.002500  0.000980  0.059607     2.550
   1.08332  0.03017 -0.02333 -1.28184  0.002710  0.001063  0.055079     2.550
   1.08907  0.03561 -0.02519 -1.28331  0.002933  0.001149  0.050832     2.552
   1.09564  0.04190 -0.02708 -1.28379  0.003188  0.001244  0.046257     2.562
   1.10320  0.04922 -0.02900 -1.28178  0.003506  0.001353  0.040645     2.591
   1.11196  0.05776 -0.03093 -1.27653  0.003901  0.001480  0.034574     2.635
   1.12207  0.06768 -0.03288 -1.26937  0.004328  0.001621  0.029748     2.670
   1.13350  0.07895 -0.03481 -1.26192  0.004746  0.001768  0.026490     2.684
   1.14613  0.09144 -0.03664 -1.25405  0.005191  0.001922  0.023574     2.701
   1.15994  0.10515 -0.03835 -1.24541  0.005685  0.002085  0.020703     2.727
   1.17469  0.11981 -0.03996 -1.23809  0.006099  0.002240  0.019299     2.722
   1.18993  0.13498 -0.04141 -1.23167  0.006497  0.002391  0.018120     2.718
   1.20552  0.15051 -0.04267 -1.22597  0.006883  0.002535  0.017091     2.715
   1.22143  0.16639 -0.04375 -1.22072  0.007265  0.002676  0.016126     2.715
   1.23764  0.18258 -0.04467 -1.21571  0.007652  0.002815  0.015176     2.718
   1.25400  0.19892 -0.04546 -1.21140  0.007995  0.002946  0.014555     2.714
   1.27036  0.21526 -0.04609 -1.20768  0.008310  0.003069  0.014074     2.707
   1.28677  0.23166 -0.04656 -1.20389  0.008659  0.003193  0.013389     2.712
   1.30335  0.24824 -0.04689 -1.20021  0.009006  0.003315  0.012759     2.717
   1.32002  0.26491 -0.04711 -1.19683  0.009329  0.003433  0.012262     2.718
   1.33663  0.28153 -0.04721 -1.19366  0.009643  0.003546  0.011811     2.719
   1.35321  0.29810 -0.04717 -1.19039  0.009981  0.003660  0.011273     2.727
   1.36986  0.31475 -0.04699 -1.18704  0.010334  0.003775  0.010708     2.738
   1.38656  0.33145 -0.04670 -1.18374  0.010683  0.003887  0.010194     2.748
   1.40323  0.34811 -0.04629 -1.18032  0.011051  0.004001  0.009647     2.762
   1.41985  0.36473 -0.04576 -1.17686  0.011428  0.004114  0.009112     2.778
   1.43647  0.38133 -0.04510 -1.17311  0.011857  0.004230  0.008474     2.803
   1.45309  0.39793 -0.04431 -1.16919  0.012312  0.004349  0.007830     2.831
   1.46972  0.41453 -0.04339 -1.16507  0.012808  0.004470  0.007153     2.865
   1.48633  0.43111 -0.04234 -1.16076  0.013347  0.004594  0.006457     2.906
   1.50291  0.44765 -0.04116 -1.15628  0.013938  0.004720  0.005740     2.953
   1.51945  0.46414 -0.03985 -1.15164  0.014591  0.004849  0.005003     3.009
   1.53596  0.48059 -0.03840 -1.14686  0.015326  0.004981  0.004239     3.077
   1.55247  0.49701 -0.03680 -1.14200  0.016148  0.005115  0.003467     3.157
   1.56903  0.51348 -0.03504 -1.13710  0.017082  0.005250  0.002687     3.253
   1.58574  0.53008 -0.03313 -1.13229  0.018104  0.005385  0.001959     3.362
   1.60264  0.54687 -0.03109 -1.12764  0.019209  0.005518  0.001301     3.481
   1.61973  0.56382 -0.02896 -1.12322  0.020353  0.005646  0.000749     3.605
   1.63695  0.58089 -0.02675 -1.11906  0.021524  0.005769  0.000296     3.731
   1.65426  0.59806 -0.02449 -1.11515  0.022703  0.005888 -0.000063     3.856
   1.67164  0.61529 -0.02221 -1.11148  0.023867  0.006003 -0.000336     3.976
   1.68905  0.63255 -0.01994 -1.10802  0.024998  0.006114 -0.000539     4.089
   1.70644  0.64979 -0.01769 -1.10475  0.026081  0.006221 -0.000686     4.192
   1.72377  0.66698 -0.01547 -1.10165  0.027116  0.006326 -0.000790     4.287
   1.74101  0.68409 -0.01330 -1.09871  0.028085  0.006428 -0.000861     4.369
   1.75815  0.70109 -0.01119 -1.09592  0.028981  0.006527 -0.000908     4.440
   1.77520  0.71802 -0.00917 -1.09327  0.029784  0.006623 -0.000934     4.497
   1.79217  0.73488 -0.00723 -1.09073  0.030494  0.006718 -0.000947     4.539
   1.80907  0.75168 -0.00538 -1.08828  0.031101  0.006811 -0.000948     4.567
   1.82588  0.76841 -0.00365 -1.08592  0.031606  0.006902 -0.000941     4.579
   1.84259  0.78504 -0.00203 -1.08363  0.031986  0.006992 -0.000924     4.575
   1.85920  0.80157 -0.00054 -1.08140  0.032244  0.007080 -0.000899     4.554
   1.87568  0.81800  0.00080 -1.07922  0.032361  0.007168 -0.000863     4.515
   1.89204  0.83432  0.00198 -1.07710  0.032330  0.007254 -0.000814     4.457
   1.90829  0.85054  0.00299 -1.07501  0.032139  0.007339 -0.000745     4.379
   1.92442  0.86665  0.00381 -1.07295  0.031780  0.007424 -0.000650     4.281
   1.94041  0.88262  0.00443 -1.07093  0.031256  0.007508 -0.000517     4.163
   1.95619  0.89840  0.00486 -1.06896  0.030563  0.007589 -0.000333     4.027
   1.97170  0.91391  0.00506 -1.06711  0.029692  0.007666 -0.000078     3.873
   1.98685  0.92905  0.00502 -1.06550  0.028643  0.007734  0.000274     3.703
   2.00150  0.94370  0.00473 -1.06429  0.027423  0.007787  0.000749     3.522
   2.01546  0.95766  0.00418 -1.06373  0.026055  0.007816  0.001373     3.334
   2.02853  0.97070  0.00337 -1.06412  0.024570  0.007811  0.002170     3.146
   2.04056  0.98268  0.00230 -1.06571  0.023020  0.007766  0.003150     2.964
   2.05143  0.99347  0.00100 -1.06864  0.021482  0.007680  0.004294     2.797
   2.05803  1.00000  0.00000 -1.06741  0.021895  0.007735  0.004022     2.831
   2.05803  1.00010 -0.00002  1.06741  0.139433  0.013979  0.000000     9.975
   2.06467  1.00659 -0.00142  1.06492  0.134521  0.014365  0.000000     9.364
   2.07243  1.01422 -0.00281  1.06220  0.132166  0.014780  0.000000     8.942
   2.08150  1.02317 -0.00428  1.05898  0.129818  0.015269  0.000000     8.502
   2.09210  1.03365 -0.00585  1.05515  0.127339  0.015847  0.000000     8.035
   2.10448  1.04592 -0.00755  1.05056  0.124585  0.016538  0.000000     7.533
   2.11896  1.06027 -0.00939  1.04502  0.121446  0.017368  0.000000     6.992
   2.13587  1.07707 -0.01138  1.03830  0.117812  0.018371  0.000000     6.413
   2.15564  1.09672 -0.01354  1.03005  0.113572  0.019598  0.000000     5.795
   2.17875  1.11971 -0.01588  1.01966  0.108617  0.021138  0.000000     5.138
   2.20575  1.14660 -0.01840  1.00645  0.102843  0.023098  0.000000     4.453
   2.23731  1.17804 -0.02111  0.99118  0.096091  0.025363  0.000000     3.789
   2.27420  1.21481 -0.02403  0.97671  0.088236  0.027498  0.000000     3.209
   2.31730  1.25780 -0.02714  0.96362  0.079470  0.029399  0.000000     2.703
   2.36768  1.30807 -0.03046  0.95356  0.070154  0.030817  0.000000     2.276
   2.42656  1.36685 -0.03397  0.94817  0.060896  0.031543  0.000000     1.931
   2.49537  1.43556 -0.03766  0.94828  0.052441  0.031528  0.000000     1.663
   2.57580  1.51589 -0.04152  0.95312  0.045395  0.030962  0.000000     1.466
   2.66978  1.60979 -0.04553  0.96055  0.039973  0.030157  0.000000     1.326
   2.77963  1.71956 -0.04965  0.96839  0.036015  0.029364  0.000000     1.227
   2.90801  1.84787 -0.05385  0.97544  0.033195  0.028692  0.000000     1.157
   3.05804  1.99785 -0.05808  0.98647  0.030644  0.027700  0.000000     1.106
