#    s        x        y     Ue/Vinf    Dstar     Theta      Cf       H
   0.00000  1.00000  0.00000  1.12509  0.176974  0.005365 -0.000278    32.984
   0.00667  0.99364  0.00201  1.12500  0.173585  0.005383 -0.001172    32.248
   0.01801  0.98283  0.00544  1.12500  0.169953  0.005388 -0.001171    31.544
   0.03089  0.97055  0.00931  1.12501  0.165916  0.005392 -0.001171    30.769
   0.04491  0.95712  0.01335  1.12503  0.161699  0.005396 -0.001171    29.969
   0.05974  0.94286  0.01740  1.12507  0.157425  0.005397 -0.001171    29.170
   0.07527  0.92786  0.02141  1.12512  0.153141  0.005396 -0.001172    28.381
   0.09142  0.91220  0.02541  1.12519  0.148802  0.005394 -0.001174    27.588
   0.10802  0.89609  0.02942  1.12527  0.144385  0.005391 -0.001175    26.783
   0.12488  0.87971  0.03341  1.12534  0.139905  0.005388 -0.001177    25.966
   0.14188  0.86318  0.03738  1.12543  0.135380  0.005385 -0.001179    25.139
   0.15896  0.84656  0.04130  1.12551  0.130816  0.005383 -0.001181    24.303
   0.17607  0.82989  0.04517  1.12559  0.126228  0.005380 -0.001183    23.462
   0.19318  0.81321  0.04899  1.12568  0.121622  0.005378 -0.001185    22.615
   0.21029  0.79652  0.05273  1.12577  0.117005  0.005375 -0.001187    21.767
   0.22743  0.77978  0.05643  1.12586  0.112368  0.005373 -0.001190    20.914
   0.24453  0.76308  0.06007  1.12596  0.107713  0.005370 -0.001192    20.057
   0.26151  0.74647  0.06361  1.12607  0.103080  0.005368 -0.001195    19.204
   0.27839  0.72994  0.06704  1.12618  0.098494  0.005364 -0.001198    18.361
   0.29522  0.71344  0.07036  1.12631  0.093948  0.005360 -0.001202    17.528
   0.31203  0.69694  0.07357  1.12646  0.089448  0.005354 -0.001207    16.705
   0.32881  0.68046  0.07667  1.12663  0.084998  0.005348 -0.001212    15.895
   0.34552  0.66401  0.07965  1.12683  0.080609  0.005339 -0.001218    15.098
   0.36216  0.64761  0.08250  1.12706  0.076296  0.005329 -0.001225    14.318
   0.37877  0.63123  0.08521  1.12734  0.072071  0.005316 -0.001233    13.558
   0.39539  0.61480  0.08779  1.12767  0.067923  0.005300 -0.001242    12.816
   0.41202  0.59836  0.09025  1.12807  0.063844  0.005281 -0.001254    12.089
   0.42857  0.58198  0.09257  1.12854  0.059861  0.005259 -0.001267    11.382
   0.44503  0.56566  0.09473  1.12910  0.055996  0.005234 -0.001283    10.699
   0.46148  0.54933  0.09674  1.12978  0.052248  0.005203 -0.001301    10.041
   0.47798  0.53293  0.09860  1.13059  0.048602  0.005168 -0.001323     9.405
   0.49446  0.51655  0.10033  1.13157  0.045051  0.005127 -0.001350     8.787
   0.51082  0.50026  0.10190  1.13274  0.041638  0.005081 -0.001383     8.195
   0.52710  0.48404  0.10328  1.13414  0.038385  0.005028 -0.001422     7.635
   0.54339  0.46779  0.10449  1.13584  0.035278  0.004967 -0.001471     7.103
   0.55971  0.45151  0.10554  1.13789  0.032309  0.004897 -0.001531     6.597
   0.57600  0.43525  0.10643  1.14035  0.029472  0.004820 -0.001605     6.115
   0.59218  0.41907  0.10713  1.14331  0.026812  0.004732 -0.001684     5.666
   0.60829  0.40298  0.10765  1.14686  0.024327  0.004634 -0.001728     5.249
   0.62434  0.38693  0.10796  1.15110  0.022028  0.004526 -0.001700     4.868
   0.64042  0.37085  0.10808  1.15614  0.019911  0.004405 -0.001511     4.520
   0.65651  0.35476  0.10800  1.16199  0.017957  0.004273 -0.001069     4.202
   0.67249  0.33878  0.10774  1.16857  0.016165  0.004134 -0.000293     3.910
   0.68825  0.32303  0.10727  1.17596  0.014560  0.003985  0.000841     3.654
   0.70393  0.30737  0.10654  1.18416  0.013182  0.003826  0.002230     3.446
   0.71975  0.29158  0.10557  1.19308  0.011978  0.003658  0.003845     3.274
   0.73559  0.27578  0.10439  1.20254  0.010885  0.003485  0.005769     3.123
   0.75115  0.26028  0.10302  1.21214  0.009893  0.003312  0.008049     2.987
   0.76650  0.24502  0.10139  1.22109  0.009085  0.003148  0.010263     2.886
   0.78192  0.22972  0.09944  1.22921  0.008424  0.002991  0.012275     2.816
   0.79744  0.21436  0.09725  1.23681  0.007817  0.002837  0.014426     2.755
   0.81279  0.19920  0.09484  1.24371  0.007241  0.002687  0.016883     2.695
   0.82793  0.18429  0.09217  1.24902  0.006766  0.002547  0.019020     2.656
   0.84302  0.16950  0.08922  1.25322  0.006335  0.002412  0.021108     2.627
   0.85806  0.15481  0.08599  1.25644  0.005926  0.002278  0.023297     2.601
   0.87291  0.14036  0.08253  1.25861  0.005533  0.002146  0.025649     2.578
   0.88737  0.12638  0.07886  1.25995  0.005111  0.002011  0.028988     2.541
   0.90140  0.11290  0.07496  1.25835  0.004767  0.001889  0.031610     2.524
   0.91519  0.09977  0.07076  1.25491  0.004465  0.001769  0.033661     2.524
   0.92848  0.08721  0.06643  1.25129  0.004108  0.001641  0.037310     2.503
   0.94079  0.07568  0.06209  1.24545  0.003725  0.001516  0.042982     2.457
   0.95221  0.06515  0.05767  1.23365  0.003475  0.001413  0.045552     2.459
   0.96284  0.05550  0.05322  1.22122  0.003251  0.001311  0.047193     2.479
   0.97241  0.04692  0.04898  1.21052  0.002958  0.001200  0.052208     2.465
   0.98081  0.03952  0.04501  1.19721  0.002683  0.001097  0.058037     2.446
   0.98816  0.03319  0.04127  1.18027  0.002425  0.001003  0.065156     2.417
   0.99463  0.02777  0.03774  1.15813  0.002216  0.000923  0.071099     2.402
   1.00034  0.02313  0.03441  1.13198  0.002021  0.000849  0.077849     2.380
   1.00542  0.01915  0.03125  1.10064  0.001856  0.000785  0.083672     2.365
   1.00996  0.01574  0.02825  1.06477  0.001709  0.000727  0.088991     2.352
   1.01405  0.01281  0.02541  1.02425  0.001575  0.000673  0.094082     2.339
   1.01775  0.01030  0.02269  0.97763  0.001446  0.000625  0.100084     2.315
   1.02112  0.00816  0.02007  0.92340  0.001350  0.000585  0.101777     2.309
   1.02423  0.00634  0.01756  0.86351  0.001251  0.000546  0.104726     2.288
   1.02710  0.00481  0.01513  0.79538  0.001175  0.000516  0.103819     2.277
   1.02975  0.00353  0.01281  0.72143  0.001110  0.000490  0.100498     2.267
   1.03221  0.00250  0.01057  0.64225  0.001055  0.000467  0.095025     2.257
   1.03452  0.00166  0.00842  0.55997  0.001009  0.000445  0.085653     2.269
   1.03670  0.00100  0.00634  0.46883  0.000946  0.000428  0.080860     2.208
   1.03878  0.00049  0.00433  0.37448  0.000968  0.000425  0.059129     2.280
   1.04077  0.00014  0.00237  0.28573  0.000825  0.000362  0.052981     2.278
   1.04268 -0.00001  0.00047  0.15689  0.000696  0.000312  0.036070     2.230
   1.04452  0.00009 -0.00138 -0.00382  0.000696  0.000312  0.000880     2.230
   1.04638  0.00049 -0.00318 -0.14317  0.000776  0.000348  0.029506     2.230
   1.04830  0.00119 -0.00498 -0.28015  0.000768  0.000345  0.058587     2.225
   1.05035  0.00220 -0.00676 -0.41126  0.000822  0.000364  0.078075     2.257
   1.05254  0.00351 -0.00851 -0.52293  0.000903  0.000398  0.089664     2.266
   1.05487  0.00512 -0.01021 -0.61558  0.001001  0.000438  0.093565     2.285
   1.05738  0.00701 -0.01184 -0.68790  0.001130  0.000488  0.090223     2.313
   1.06008  0.00920 -0.01343 -0.74184  0.001284  0.000549  0.083343     2.341
   1.06301  0.01168 -0.01499 -0.78490  0.001433  0.000610  0.078452     2.349
   1.06622  0.01448 -0.01656 -0.82370  0.001565  0.000667  0.075639     2.345
   1.06978  0.01766 -0.01815 -0.85613  0.001735  0.000732  0.069209     2.370
   1.07377  0.02129 -0.01981 -0.88490  0.001895  0.000799  0.065273     2.374
   1.07825  0.02543 -0.02154 -0.91258  0.002048  0.000864  0.062458     2.371
   1.08332  0.03017 -0.02333 -0.94040  0.002194  0.000928  0.060443     2.365
   1.08907  0.03561 -0.02519 -0.96606  0.002377  0.001000  0.056582     2.378
   1.09564  0.04190 -0.02708 -0.98985  0.002571  0.001077  0.053145     2.387
   1.10320  0.04922 -0.02900 -1.00900  0.002836  0.001173  0.047609     2.418
   1.11196  0.05776 -0.03093 -1.02354  0.003145  0.001285  0.042249     2.447
   1.12207  0.06768 -0.03288 -1.03498  0.003476  0.001410  0.037909     2.466
   1.13350  0.07895 -0.03481 -1.04582  0.003781  0.001534  0.035290     2.464
   1.14613  0.09144 -0.03664 -1.05410  0.004145  0.001670  0.031839     2.482
   1.15994  0.10515 -0.03835 -1.06030  0.004523  0.001811  0.028885     2.497
   1.17469  0.11981 -0.03996 -1.06676  0.004838  0.001944  0.027410     2.489
   1.18993  0.13498 -0.04141 -1.07297  0.005141  0.002069  0.026066     2.484
   1.20552  0.15051 -0.04267 -1.07847  0.005447  0.002191  0.024703     2.485
   1.22143  0.16639 -0.04375 -1.08314  0.005755  0.002311  0.023371     2.490
   1.23764  0.18258 -0.04467 -1.08702  0.006065  0.002430  0.022112     2.496
   1.25400  0.19892 -0.04546 -1.09115  0.006320  0.002538  0.021434     2.490
   1.27036  0.21526 -0.04609 -1.09507  0.006567  0.002641  0.020771     2.487
   1.28677  0.23166 -0.04656 -1.09825  0.006839  0.002744  0.019896     2.492
   1.30335  0.24824 -0.04689 -1.10106  0.007104  0.002846  0.019114     2.496
   1.32002  0.26491 -0.04711 -1.10376  0.007349  0.002943  0.018512     2.497
   1.33663  0.28153 -0.04721 -1.10644  0.007572  0.003035  0.018047     2.495
   1.35321  0.29810 -0.04717 -1.10877  0.007805  0.003126  0.017509     2.497
   1.36986  0.31475 -0.04699 -1.11050  0.008064  0.003220  0.016831     2.505
   1.38656  0.33145 -0.04670 -1.11222  0.008297  0.003309  0.016338     2.507
   1.40323  0.34811 -0.04629 -1.11363  0.008536  0.003398  0.015820     2.512
   1.41985  0.36473 -0.04576 -1.11480  0.008775  0.003486  0.015320     2.517
   1.43647  0.38133 -0.04510 -1.11545  0.009041  0.003577  0.014716     2.527
   1.45309  0.39793 -0.04431 -1.11571  0.009317  0.003669  0.014099     2.539
   1.46972  0.41453 -0.04339 -1.11549  0.009616  0.003765  0.013434     2.554
   1.48633  0.43111 -0.04234 -1.11487  0.009928  0.003862  0.012768     2.571
   1.50291  0.44765 -0.04116 -1.11378  0.010265  0.003962  0.012060     2.591
   1.51945  0.46414 -0.03985 -1.11214  0.010640  0.004067  0.011290     2.616
   1.53596  0.48059 -0.03840 -1.11001  0.011047  0.004177  0.010492     2.645
   1.55247  0.49701 -0.03680 -1.10717  0.011528  0.004295  0.009566     2.684
   1.56903  0.51348 -0.03504 -1.10374  0.012071  0.004420  0.008592     2.731
   1.58574  0.53008 -0.03313 -1.09983  0.012676  0.004551  0.007606     2.785
   1.60264  0.54687 -0.03109 -1.09559  0.013327  0.004687  0.006663     2.843
   1.61973  0.56382 -0.02896 -1.09123  0.013994  0.004824  0.005826     2.901
   1.63695  0.58089 -0.02675 -1.08685  0.014669  0.004961  0.005094     2.957
   1.65426  0.59806 -0.02449 -1.08250  0.015340  0.005096  0.004464     3.010
   1.67164  0.61529 -0.02221 -1.07829  0.015986  0.005229  0.003948     3.057
   1.68905  0.63255 -0.01994 -1.07423  0.016602  0.005358  0.003528     3.099
   1.70644  0.64979 -0.01769 -1.07036  0.017173  0.005483  0.003202     3.132
   1.72377  0.66698 -0.01547 -1.06667  0.017707  0.005605  0.002941     3.159
   1.74101  0.68409 -0.01330 -1.06317  0.018196  0.005723  0.002743     3.179
   1.75815  0.70109 -0.01119 -1.05987  0.018628  0.005836  0.002608     3.192
   1.77520  0.71802 -0.00917 -1.05679  0.018996  0.005945  0.002532     3.195
   1.79217  0.73488 -0.00723 -1.05391  0.019297  0.006049  0.002512     3.190
   1.80907  0.75168 -0.00538 -1.05126  0.019527  0.006148  0.002544     3.176
   1.82588  0.76841 -0.00365 -1.04884  0.019688  0.006242  0.002624     3.154
   1.84259  0.78504 -0.00203 -1.04669  0.019767  0.006328  0.002761     3.123
   1.85920  0.80157 -0.00054 -1.04483  0.019763  0.006408  0.002956     3.084
   1.87568  0.81800  0.00080 -1.04334  0.019665  0.006478  0.003219     3.036
   1.89204  0.83432  0.00198 -1.04227  0.019468  0.006537  0.003561     2.978
   1.90829  0.85054  0.00299 -1.04174  0.019164  0.006581  0.003998     2.912
   1.92442  0.86665  0.00381 -1.04187  0.018748  0.006609  0.004546     2.837
   1.94041  0.88262  0.00443 -1.04281  0.018226  0.006616  0.005218     2.755
   1.95619  0.89840  0.00486 -1.04477  0.017594  0.006599  0.006043     2.666
   1.97170  0.91391  0.00506 -1.04803  0.016847  0.006550  0.007064     2.572
   1.98685  0.92905  0.00502 -1.05299  0.015979  0.006464  0.008339     2.472
   2.00150  0.94370  0.00473 -1.06013  0.014993  0.006333  0.009949     2.367
   2.01546  0.95766  0.00418 -1.07004  0.013898  0.006150  0.011996     2.260
   2.02853  0.97070  0.00337 -1.08351  0.012702  0.005908  0.014645     2.150
   2.04056  0.98268  0.00230 -1.10157  0.011422  0.005601  0.018144     2.039
   2.05143  0.99347  0.00100 -1.12586  0.010064  0.005222  0.022928     1.927
   2.05803  1.00000  0.00000 -1.12509  0.010393  0.005294  0.021603     1.963
   2.05803  1.00010 -0.00002  1.12509  0.187367  0.010659  0.000000    17.578
   2.06467  1.00659 -0.00141  1.12258  0.183375  0.011122  0.000000    16.488
   2.07243  1.01423 -0.00275  1.11979  0.181659  0.011633  0.000000    15.616
   2.08150  1.02319 -0.00413  1.11650  0.179968  0.012235  0.000000    14.709
   2.09210  1.03369 -0.00558  1.11261  0.178173  0.012948  0.000000    13.761
   2.10448  1.04598 -0.00711  1.10800  0.176136  0.013795  0.000000    12.768
   2.11896  1.06037 -0.00872  1.10252  0.173744  0.014805  0.000000    11.735
   2.13587  1.07720 -0.01041  1.09599  0.170878  0.016013  0.000000    10.671
   2.15564  1.09689 -0.01216  1.08819  0.167402  0.017462  0.000000     9.587
   2.17875  1.11993 -0.01397  1.07879  0.163160  0.019217  0.000000     8.490
   2.20575  1.14687 -0.01581  1.06738  0.157968  0.021359  0.000000     7.396
   2.23731  1.17837 -0.01765  1.05351  0.151603  0.023983  0.000000     6.321
   2.27420  1.21521 -0.01945  1.03634  0.143850  0.027260  0.000000     5.277
   2.31730  1.25829 -0.02115  1.01430  0.134572  0.031532  0.000000     4.268
   2.36768  1.30864 -0.02267  0.99138  0.123383  0.036039  0.000000     3.424
   2.42656  1.36751 -0.02392  0.97129  0.110411  0.039997  0.000000     2.760
   2.49537  1.43632 -0.02478  0.95567  0.096392  0.043025  0.000000     2.240
   2.57580  1.51674 -0.02511  0.94720  0.082497  0.044602  0.000000     1.850
   2.66978  1.61072 -0.02472  0.94704  0.070142  0.044630  0.000000     1.572
   2.77963  1.72056 -0.02340  0.95313  0.060278  0.043647  0.000000     1.381
   2.90801  1.84891 -0.02088  0.96222  0.052981  0.042294  0.000000     1.253
   3.05804  1.99890 -0.01686  0.98414  0.045591  0.039348  0.000000     1.159
