#    s        x        y     Ue/Vinf    Dstar     Theta      Cf       H
   0.00000  1.00000  0.00000  1.07347  0.124966  0.006128 -0.000253    20.393
   0.00667  0.99364  0.00201  1.07334  0.121622  0.006147 -0.000993    19.785
   0.01801  0.98283  0.00544  1.07335  0.118348  0.006151 -0.000994    19.241
   0.03089  0.97055  0.00931  1.07338  0.114774  0.006153 -0.000995    18.654
   0.04491  0.95712  0.01335  1.07343  0.111107  0.006152 -0.000997    18.060
   0.05974  0.94286  0.01740  1.07352  0.107454  0.006148 -0.000999    17.477
   0.07527  0.92786  0.02141  1.07365  0.103851  0.006141 -0.001002    16.910
   0.09142  0.91220  0.02541  1.07381  0.100248  0.006132 -0.001006    16.349
   0.10802  0.89609  0.02942  1.07399  0.096612  0.006121 -0.001010    15.785
   0.12488  0.87971  0.03341  1.07419  0.092954  0.006108 -0.001014    15.219
   0.14188  0.86318  0.03738  1.07441  0.089285  0.006094 -0.001019    14.651
   0.15896  0.84656  0.04130  1.07465  0.085610  0.006079 -0.001025    14.083
   0.17607  0.82989  0.04517  1.07492  0.081939  0.006062 -0.001031    13.516
   0.19318  0.81321  0.04899  1.07522  0.078280  0.006045 -0.001038    12.951
   0.21029  0.79652  0.05273  1.07555  0.074637  0.006025 -0.001045    12.388
   0.22743  0.77978  0.05643  1.07593  0.071007  0.006003 -0.001054    11.828
   0.24453  0.76308  0.06007  1.07634  0.067383  0.005980 -0.001064    11.268
   0.26151  0.74647  0.06361  1.07681  0.063808  0.005954 -0.001075    10.717
   0.27839  0.72994  0.06704  1.07734  0.060304  0.005925 -0.001088    10.178
   0.29522  0.71344  0.07036  1.07796  0.056871  0.005893 -0.001102     9.651
   0.31203  0.69694  0.07357  1.07867  0.053508  0.005857 -0.001119     9.136
   0.32881  0.68046  0.07667  1.07949  0.050228  0.005817 -0.001139     8.635
   0.34552  0.66401  0.07965  1.08044  0.047036  0.005772 -0.001162     8.149
   0.36216  0.64761  0.08250  1.08155  0.043949  0.005722 -0.001190     7.681
   0.37877  0.63123  0.08521  1.08284  0.040978  0.005666 -0.001223     7.232
   0.39539  0.61480  0.08779  1.08435  0.038117  0.005604 -0.001262     6.801
   0.41202  0.59836  0.09025  1.08612  0.035357  0.005535 -0.001308     6.388
   0.42857  0.58198  0.09257  1.08817  0.032715  0.005459 -0.001363     5.992
   0.44503  0.56566  0.09473  1.09058  0.030220  0.005376 -0.001416     5.621
   0.46148  0.54933  0.09674  1.09338  0.027871  0.005284 -0.001446     5.275
   0.47798  0.53293  0.09860  1.09666  0.025650  0.005182 -0.001438     4.949
   0.49446  0.51655  0.10033  1.10044  0.023552  0.005072 -0.001342     4.644
   0.51082  0.50026  0.10190  1.10475  0.021599  0.004953 -0.001113     4.361
   0.52710  0.48404  0.10328  1.10953  0.019818  0.004828 -0.000718     4.105
   0.54339  0.46779  0.10449  1.11484  0.018192  0.004694 -0.000140     3.875
   0.55971  0.45151  0.10554  1.12075  0.016700  0.004552  0.000636     3.669
   0.57600  0.43525  0.10643  1.12725  0.015324  0.004400  0.001626     3.482
   0.59218  0.41907  0.10713  1.13423  0.014091  0.004243  0.002788     3.321
   0.60829  0.40298  0.10765  1.14151  0.013001  0.004082  0.004076     3.185
   0.62434  0.38693  0.10796  1.14894  0.012026  0.003919  0.005492     3.068
   0.64042  0.37085  0.10808  1.15631  0.011167  0.003759  0.006967     2.971
   0.65651  0.35476  0.10800  1.16351  0.010389  0.003600  0.008554     2.886
   0.67249  0.33878  0.10774  1.17040  0.009667  0.003444  0.010312     2.807
   0.68825  0.32303  0.10727  1.17657  0.009027  0.003295  0.012122     2.740
   0.70393  0.30737  0.10654  1.18170  0.008486  0.003156  0.013797     2.689
   0.71975  0.29158  0.10557  1.18578  0.008021  0.003024  0.015306     2.652
   0.73559  0.27578  0.10439  1.18938  0.007550  0.002892  0.017121     2.611
   0.75115  0.26028  0.10302  1.19213  0.007082  0.002762  0.019291     2.564
   0.76650  0.24502  0.10139  1.19279  0.006710  0.002647  0.021019     2.536
   0.78192  0.22972  0.09944  1.19180  0.006401  0.002539  0.022359     2.521
   0.79744  0.21436  0.09725  1.19008  0.006079  0.002428  0.023958     2.504
   0.81279  0.19920  0.09484  1.18740  0.005741  0.002317  0.026001     2.478
   0.82793  0.18429  0.09217  1.18255  0.005458  0.002214  0.027599     2.466
   0.84302  0.16950  0.08922  1.17614  0.005197  0.002112  0.028995     2.460
   0.85806  0.15481  0.08599  1.16867  0.004926  0.002008  0.030617     2.453
   0.87291  0.14036  0.08253  1.15982  0.004654  0.001901  0.032360     2.447
   0.88737  0.12638  0.07886  1.14985  0.004320  0.001788  0.035663     2.417
   0.90140  0.11290  0.07496  1.13528  0.004075  0.001689  0.037489     2.412
   0.91519  0.09977  0.07076  1.11863  0.003842  0.001589  0.038941     2.418
   0.92848  0.08721  0.06643  1.10104  0.003562  0.001478  0.041694     2.410
   0.94079  0.07568  0.06209  1.08040  0.003243  0.001368  0.046717     2.371
   0.95221  0.06515  0.05767  1.05227  0.003021  0.001279  0.049279     2.362
   0.96284  0.05550  0.05322  1.02151  0.002847  0.001195  0.049709     2.383
   0.97241  0.04692  0.04898  0.99254  0.002615  0.001098  0.052660     2.381
   0.98081  0.03952  0.04501  0.96116  0.002368  0.001003  0.057476     2.360
   0.98816  0.03319  0.04127  0.92441  0.002164  0.000921  0.061196     2.349
   0.99463  0.02777  0.03774  0.88248  0.001965  0.000847  0.066094     2.320
   1.00034  0.02313  0.03441  0.83440  0.001830  0.000787  0.066796     2.325
   1.00542  0.01915  0.03125  0.78367  0.001671  0.000726  0.070208     2.302
   1.00996  0.01574  0.02825  0.72606  0.001551  0.000675  0.070445     2.297
   1.01405  0.01281  0.02541  0.66434  0.001435  0.000626  0.070055     2.291
   1.01775  0.01030  0.02269  0.59512  0.001319  0.000583  0.070120     2.262
   1.02112  0.00816  0.02007  0.51908  0.001252  0.000549  0.063485     2.278
   1.02423  0.00634  0.01756  0.43719  0.001150  0.000515  0.060502     2.235
   1.02710  0.00481  0.01513  0.34919  0.001113  0.000489  0.048216     2.274
   1.02975  0.00353  0.01281  0.25737  0.000989  0.000441  0.041064     2.245
   1.03221  0.00250  0.01057  0.14916  0.000955  0.000429  0.025138     2.223
   1.03452  0.00166  0.00842  0.04560  0.000998  0.000448  0.007312     2.230
   1.03670  0.00100  0.00634 -0.04675  0.000998  0.000448  0.007496     2.230
   1.03878  0.00049  0.00433 -0.17657  0.000743  0.000338  0.039066     2.200
   1.04077  0.00014  0.00237 -0.32247  0.000770  0.000340  0.064775     2.266
   1.04268 -0.00001  0.00047 -0.47042  0.000720  0.000329  0.108197     2.191
   1.04452  0.00009 -0.00138 -0.63428  0.000697  0.000313  0.146006     2.227
   1.04638  0.00049 -0.00318 -0.78831  0.000713  0.000318  0.174945     2.243
   1.04830  0.00119 -0.00498 -0.91362  0.000788  0.000344  0.174983     2.294
   1.05035  0.00220 -0.00676 -1.00990  0.000878  0.000380  0.170854     2.311
   1.05254  0.00351 -0.00851 -1.08784  0.000973  0.000418  0.163752     2.326
   1.05487  0.00512 -0.01021 -1.14283  0.001110  0.000468  0.143970     2.374
   1.05738  0.00701 -0.01184 -1.17831  0.001269  0.000526  0.124781     2.413
   1.06008  0.00920 -0.01343 -1.19813  0.001464  0.000594  0.104323     2.465
   1.06301  0.01168 -0.01499 -1.21156  0.001641  0.000662  0.092833     2.478
   1.06622  0.01448 -0.01656 -1.21997  0.001840  0.000735  0.081086     2.505
   1.06978  0.01766 -0.01815 -1.22550  0.002042  0.000810  0.072160     2.520
   1.07377  0.02129 -0.01981 -1.22904  0.002254  0.000889  0.064555     2.534
   1.07825  0.02543 -0.02154 -1.23421  0.002428  0.000965  0.061377     2.516
   1.08332  0.03017 -0.02333 -1.23926  0.002627  0.001044  0.057022     2.515
   1.08907  0.03561 -0.02519 -1.24430  0.002834  0.001127  0.053154     2.514
   1.09564  0.04190 -0.02708 -1.24780  0.003083  0.001219  0.048244     2.528
   1.10320  0.04922 -0.02900 -1.24839  0.003395  0.001327  0.042377     2.559
   1.11196  0.05776 -0.03093 -1.24565  0.003772  0.001451  0.036350     2.600
   1.12207  0.06768 -0.03288 -1.24085  0.004180  0.001589  0.031514     2.631
   1.13350  0.07895 -0.03481 -1.23587  0.004571  0.001731  0.028389     2.640
   1.14613  0.09144 -0.03664 -1.22993  0.005008  0.001883  0.025193     2.660
   1.15994  0.10515 -0.03835 -1.22311  0.005481  0.002043  0.022256     2.683
   1.17469  0.11981 -0.03996 -1.21747  0.005879  0.002195  0.020784     2.678
   1.18993  0.13498 -0.04141 -1.21286  0.006245  0.002340  0.019706     2.669
   1.20552  0.15051 -0.04267 -1.20860  0.006619  0.002481  0.018552     2.668
   1.22143  0.16639 -0.04375 -1.20472  0.006983  0.002618  0.017532     2.668
   1.23764  0.18258 -0.04467 -1.20088  0.007357  0.002753  0.016495     2.672
   1.25400  0.19892 -0.04546 -1.19780  0.007675  0.002879  0.015889     2.666
   1.27036  0.21526 -0.04609 -1.19503  0.007986  0.003000  0.015305     2.662
   1.28677  0.23166 -0.04656 -1.19230  0.008307  0.003118  0.014653     2.664
   1.30335  0.24824 -0.04689 -1.18947  0.008644  0.003237  0.013943     2.670
   1.32002  0.26491 -0.04711 -1.18696  0.008948  0.003351  0.013437     2.670
   1.33663  0.28153 -0.04721 -1.18472  0.009230  0.003459  0.013032     2.668
   1.35321  0.29810 -0.04717 -1.18222  0.009550  0.003569  0.012458     2.676
   1.36986  0.31475 -0.04699 -1.17969  0.009871  0.003678  0.011913     2.684
   1.38656  0.33145 -0.04670 -1.17706  0.010200  0.003787  0.011364     2.694
   1.40323  0.34811 -0.04629 -1.17436  0.010536  0.003895  0.010827     2.705
   1.41985  0.36473 -0.04576 -1.17156  0.010882  0.004004  0.010287     2.718
   1.43647  0.38133 -0.04510 -1.16847  0.011264  0.004115  0.009671     2.738
   1.45309  0.39793 -0.04431 -1.16515  0.011674  0.004228  0.009029     2.761
   1.46972  0.41453 -0.04339 -1.16159  0.012118  0.004344  0.008358     2.789
   1.48633  0.43111 -0.04234 -1.15773  0.012608  0.004464  0.007641     2.824
   1.50291  0.44765 -0.04116 -1.15371  0.013128  0.004585  0.006934     2.863
   1.51945  0.46414 -0.03985 -1.14940  0.013713  0.004711  0.006176     2.911
   1.53596  0.48059 -0.03840 -1.14485  0.014374  0.004841  0.005375     2.969
   1.55247  0.49701 -0.03680 -1.14013  0.015110  0.004974  0.004565     3.038
   1.56903  0.51348 -0.03504 -1.13525  0.015945  0.005110  0.003735     3.120
   1.58574  0.53008 -0.03313 -1.13034  0.016873  0.005248  0.002929     3.215
   1.60264  0.54687 -0.03109 -1.12551  0.017868  0.005384  0.002196     3.318
   1.61973  0.56382 -0.02896 -1.12086  0.018903  0.005518  0.001562     3.426
   1.63695  0.58089 -0.02675 -1.11644  0.019960  0.005648  0.001030     3.534
   1.65426  0.59806 -0.02449 -1.11225  0.021023  0.005774  0.000593     3.641
   1.67164  0.61529 -0.02221 -1.10830  0.022067  0.005895  0.000249     3.744
   1.68905  0.63255 -0.01994 -1.10457  0.023081  0.006012 -0.000019     3.839
   1.70644  0.64979 -0.01769 -1.10104  0.024047  0.006125 -0.000221     3.926
   1.72377  0.66698 -0.01547 -1.09770  0.024964  0.006235 -0.000374     4.004
   1.74101  0.68409 -0.01330 -1.09453  0.025822  0.006341 -0.000486     4.072
   1.75815  0.70109 -0.01119 -1.09152  0.026605  0.006445 -0.000564     4.128
   1.77520  0.71802 -0.00917 -1.08863  0.027303  0.006547 -0.000613     4.171
   1.79217  0.73488 -0.00723 -1.08586  0.027911  0.006646 -0.000640     4.200
   1.80907  0.75168 -0.00538 -1.08320  0.028420  0.006744 -0.000647     4.214
   1.82588  0.76841 -0.00365 -1.08062  0.028832  0.006839 -0.000638     4.216
   1.84259  0.78504 -0.00203 -1.07813  0.029125  0.006934 -0.000610     4.201
   1.85920  0.80157 -0.00054 -1.07571  0.029302  0.007026 -0.000564     4.170
   1.87568  0.81800  0.00080 -1.07336  0.029344  0.007118 -0.000495     4.123
   1.89204  0.83432  0.00198 -1.07108  0.029247  0.007207 -0.000398     4.058
   1.90829  0.85054  0.00299 -1.06887  0.028997  0.007295 -0.000265     3.975
   1.92442  0.86665  0.00381 -1.06676  0.028588  0.007379 -0.000083     3.874
   1.94041  0.88262  0.00443 -1.06479  0.028026  0.007460  0.000158     3.757
   1.95619  0.89840  0.00486 -1.06304  0.027302  0.007532  0.000478     3.625
   1.97170  0.91391  0.00506 -1.06163  0.026413  0.007592  0.000898     3.479
   1.98685  0.92905  0.00502 -1.06077  0.025355  0.007633  0.001447     3.322
   2.00150  0.94370  0.00473 -1.06071  0.024138  0.007648  0.002157     3.156
   2.01546  0.95766  0.00418 -1.06176  0.022779  0.007625  0.003058     2.987
   2.02853  0.97070  0.00337 -1.06428  0.021308  0.007558  0.004183     2.819
   2.04056  0.98268  0.00230 -1.06859  0.019770  0.007440  0.005560     2.657
   2.05143  0.99347  0.00100 -1.07486  0.018231  0.007273  0.007192     2.507
   2.05803  1.00000  0.00000 -1.07347  0.018620  0.007336  0.006795     2.538
   2.05803  1.00010 -0.00002  1.07347  0.143586  0.013464  0.000000    10.665
   2.06467  1.00659 -0.00142  1.07105  0.138822  0.013843  0.000000    10.028
   2.07243  1.01422 -0.00280  1.06842  0.136557  0.014251  0.000000     9.582
   2.08150  1.02317 -0.00426  1.06530  0.134300  0.014732  0.000000     9.116
   2.09210  1.03365 -0.00581  1.06159  0.131915  0.015301  0.000000     8.621
   2.10448  1.04593 -0.00749  1.05715  0.129258  0.015980  0.000000     8.089
   2.11896  1.06029 -0.00930  1.05180  0.126220  0.016795  0.000000     7.516
   2.13587  1.07709 -0.01125  1.04532  0.122690  0.017777  0.000000     6.901
   2.15564  1.09675 -0.01336  1.03742  0.118550  0.018973  0.000000     6.248
   2.17875  1.11974 -0.01562  1.02755  0.113680  0.020460  0.000000     5.556
   2.20575  1.14664 -0.01806  1.01509  0.107955  0.022339  0.000000     4.833
   2.23731  1.17809 -0.02065  0.99920  0.101278  0.024736  0.000000     4.094
   2.27420  1.21487 -0.02342  0.98347  0.093402  0.027107  0.000000     3.446
   2.31730  1.25788 -0.02635  0.96884  0.084456  0.029287  0.000000     2.884
   2.36768  1.30816 -0.02942  0.95689  0.074767  0.031026  0.000000     2.410
   2.42656  1.36695 -0.03263  0.94948  0.064934  0.032060  0.000000     2.025
   2.49537  1.43569 -0.03595  0.94784  0.055761  0.032275  0.000000     1.728
   2.57580  1.51604 -0.03934  0.95161  0.047983  0.031815  0.000000     1.508
   2.66978  1.60996 -0.04276  0.95872  0.041942  0.031013  0.000000     1.352
   2.77963  1.71976 -0.04616  0.96673  0.037525  0.030174  0.000000     1.244
   2.90801  1.84809 -0.04946  0.97412  0.034391  0.029447  0.000000     1.168
   3.05804  1.99809 -0.05259  0.98602  0.031547  0.028346  0.000000     1.113
