#    s        x        y     Ue/Vinf    Dstar     Theta      Cf       H
   0.00000  1.00000  0.00000  1.09647  0.146830  0.005789 -0.000264    25.363
   0.00667  0.99364  0.00201  1.09636  0.143471  0.005808 -0.001066    24.703
   0.01801  0.98283  0.00544  1.09636  0.140039  0.005813 -0.001065    24.091
   0.03089  0.97055  0.00931  1.09638  0.136260  0.005817 -0.001066    23.425
   0.04491  0.95712  0.01335  1.09641  0.132348  0.005819 -0.001066    22.744
   0.05974  0.94286  0.01740  1.09646  0.128418  0.005819 -0.001068    22.070
   0.07527  0.92786  0.02141  1.09654  0.124509  0.005816 -0.001069    21.409
   0.09142  0.91220  0.02541  1.09664  0.120576  0.005811 -0.001072    20.750
   0.10802  0.89609  0.02942  1.09675  0.116589  0.005805 -0.001074    20.084
   0.12488  0.87971  0.03341  1.09687  0.112561  0.005798 -0.001077    19.413
   0.14188  0.86318  0.03738  1.09700  0.108505  0.005791 -0.001080    18.736
   0.15896  0.84656  0.04130  1.09715  0.104428  0.005784 -0.001084    18.056
   0.17607  0.82989  0.04517  1.09730  0.100342  0.005775 -0.001087    17.374
   0.19318  0.81321  0.04899  1.09746  0.096253  0.005767 -0.001092    16.691
   0.21029  0.79652  0.05273  1.09764  0.092168  0.005757 -0.001096    16.009
   0.22743  0.77978  0.05643  1.09784  0.088081  0.005747 -0.001101    15.327
   0.24453  0.76308  0.06007  1.09806  0.083989  0.005735 -0.001107    14.644
   0.26151  0.74647  0.06361  1.09830  0.079932  0.005723 -0.001113    13.968
   0.27839  0.72994  0.06704  1.09857  0.075934  0.005708 -0.001120    13.303
   0.29522  0.71344  0.07036  1.09889  0.071993  0.005692 -0.001129    12.649
   0.31203  0.69694  0.07357  1.09925  0.068113  0.005673 -0.001138    12.007
   0.32881  0.68046  0.07667  1.09967  0.064297  0.005651 -0.001149    11.379
   0.34552  0.66401  0.07965  1.10016  0.060561  0.005626 -0.001162    10.765
   0.36216  0.64761  0.08250  1.10074  0.056913  0.005597 -0.001176    10.168
   0.37877  0.63123  0.08521  1.10142  0.053367  0.005565 -0.001194     9.590
   0.39539  0.61480  0.08779  1.10222  0.049922  0.005527 -0.001214     9.032
   0.41202  0.59836  0.09025  1.10316  0.046559  0.005485 -0.001239     8.489
   0.42857  0.58198  0.09257  1.10428  0.043308  0.005437 -0.001268     7.965
   0.44503  0.56566  0.09473  1.10558  0.040188  0.005384 -0.001302     7.465
   0.46148  0.54933  0.09674  1.10714  0.037208  0.005323 -0.001344     6.990
   0.47798  0.53293  0.09860  1.10899  0.034347  0.005255 -0.001395     6.536
   0.49446  0.51655  0.10033  1.11117  0.031598  0.005179 -0.001457     6.101
   0.51082  0.50026  0.10190  1.11375  0.028999  0.005095 -0.001522     5.692
   0.52710  0.48404  0.10328  1.11678  0.026566  0.005002 -0.001561     5.311
   0.54339  0.46779  0.10449  1.12037  0.024305  0.004899 -0.001557     4.961
   0.55971  0.45151  0.10554  1.12458  0.022178  0.004785 -0.001447     4.634
   0.57600  0.43525  0.10643  1.12942  0.020198  0.004662 -0.001168     4.332
   0.59218  0.41907  0.10713  1.13485  0.018384  0.004532 -0.000668     4.057
   0.60829  0.40298  0.10765  1.14089  0.016741  0.004393  0.000079     3.811
   0.62434  0.38693  0.10796  1.14764  0.015264  0.004245  0.001065     3.596
   0.64042  0.37085  0.10808  1.15507  0.013937  0.004087  0.002280     3.410
   0.65651  0.35476  0.10800  1.16303  0.012757  0.003922  0.003690     3.252
   0.67249  0.33878  0.10774  1.17139  0.011662  0.003754  0.005399     3.107
   0.68825  0.32303  0.10727  1.17966  0.010720  0.003588  0.007214     2.988
   0.70393  0.30737  0.10654  1.18753  0.009922  0.003427  0.009023     2.895
   0.71975  0.29158  0.10557  1.19484  0.009241  0.003272  0.010764     2.824
   0.73559  0.27578  0.10439  1.20185  0.008584  0.003118  0.012796     2.753
   0.75115  0.26028  0.10302  1.20811  0.007969  0.002969  0.015097     2.684
   0.76650  0.24502  0.10139  1.21272  0.007468  0.002833  0.017129     2.636
   0.78192  0.22972  0.09944  1.21569  0.007067  0.002708  0.018716     2.610
   0.79744  0.21436  0.09725  1.21800  0.006665  0.002582  0.020540     2.581
   0.81279  0.19920  0.09484  1.21944  0.006259  0.002457  0.022731     2.548
   0.82793  0.18429  0.09217  1.21892  0.005921  0.002341  0.024511     2.529
   0.84302  0.16950  0.08922  1.21722  0.005594  0.002226  0.026372     2.513
   0.85806  0.15481  0.08599  1.21401  0.005296  0.002114  0.027998     2.506
   0.87291  0.14036  0.08253  1.21013  0.004969  0.001996  0.030263     2.489
   0.88737  0.12638  0.07886  1.20471  0.004622  0.001877  0.033338     2.462
   0.90140  0.11290  0.07496  1.19593  0.004339  0.001769  0.035588     2.453
   0.91519  0.09977  0.07076  1.18505  0.004088  0.001662  0.037150     2.460
   0.92848  0.08721  0.06643  1.17393  0.003770  0.001544  0.040626     2.443
   0.94079  0.07568  0.06209  1.15963  0.003431  0.001428  0.045957     2.402
   0.95221  0.06515  0.05767  1.13870  0.003205  0.001335  0.048361     2.401
   0.96284  0.05550  0.05322  1.11643  0.003005  0.001243  0.049659     2.419
   0.97241  0.04692  0.04898  1.09551  0.002755  0.001141  0.053352     2.415
   0.98081  0.03952  0.04501  1.07246  0.002493  0.001042  0.059070     2.392
   0.98816  0.03319  0.04127  1.04425  0.002269  0.000956  0.064408     2.373
   0.99463  0.02777  0.03774  1.01131  0.002079  0.000881  0.068905     2.360
   1.00034  0.02313  0.03441  0.97404  0.001901  0.000812  0.073946     2.341
   1.00542  0.01915  0.03125  0.93147  0.001755  0.000752  0.077145     2.334
   1.00996  0.01574  0.02825  0.88464  0.001612  0.000696  0.081018     2.317
   1.01405  0.01281  0.02541  0.83198  0.001492  0.000646  0.082854     2.310
   1.01775  0.01030  0.02269  0.77311  0.001371  0.000600  0.085732     2.285
   1.02112  0.00816  0.02007  0.70555  0.001286  0.000565  0.084225     2.276
   1.02423  0.00634  0.01756  0.63480  0.001213  0.000530  0.079191     2.290
   1.02710  0.00481  0.01513  0.55736  0.001107  0.000493  0.079375     2.246
   1.02975  0.00353  0.01281  0.46765  0.001072  0.000478  0.069046     2.241
   1.03221  0.00250  0.01057  0.37851  0.001042  0.000464  0.057376     2.244
   1.03452  0.00166  0.00842  0.29256  0.000959  0.000418  0.045940     2.296
   1.03670  0.00100  0.00634  0.18430  0.000814  0.000367  0.036633     2.217
   1.03878  0.00049  0.00433  0.05937  0.000889  0.000399  0.010688     2.230
   1.04077  0.00014  0.00237 -0.04685  0.000889  0.000399  0.008434     2.230
   1.04268 -0.00001  0.00047 -0.17609  0.000739  0.000335  0.038814     2.209
   1.04452  0.00009 -0.00138 -0.33640  0.000685  0.000308  0.078855     2.226
   1.04638  0.00049 -0.00318 -0.49257  0.000712  0.000317  0.108795     2.249
   1.04830  0.00119 -0.00498 -0.62690  0.000774  0.000342  0.125311     2.266
   1.05035  0.00220 -0.00676 -0.73815  0.000857  0.000375  0.131162     2.285
   1.05254  0.00351 -0.00851 -0.83155  0.000940  0.000410  0.133583     2.293
   1.05487  0.00512 -0.01021 -0.90352  0.001061  0.000455  0.124129     2.330
   1.05738  0.00701 -0.01184 -0.95536  0.001204  0.000510  0.112348     2.361
   1.06008  0.00920 -0.01343 -0.99022  0.001380  0.000574  0.097511     2.402
   1.06301  0.01168 -0.01499 -1.01654  0.001543  0.000640  0.088664     2.412
   1.06622  0.01448 -0.01656 -1.03900  0.001702  0.000704  0.081750     2.417
   1.06978  0.01766 -0.01815 -1.05648  0.001891  0.000775  0.073114     2.440
   1.07377  0.02129 -0.01981 -1.07186  0.002069  0.000847  0.067558     2.443
   1.07825  0.02543 -0.02154 -1.08783  0.002227  0.000916  0.064425     2.432
   1.08332  0.03017 -0.02333 -1.10334  0.002403  0.000988  0.060535     2.432
   1.08907  0.03561 -0.02519 -1.11811  0.002592  0.001064  0.056701     2.436
   1.09564  0.04190 -0.02708 -1.13055  0.002822  0.001150  0.051730     2.453
   1.10320  0.04922 -0.02900 -1.13968  0.003101  0.001251  0.046137     2.480
   1.11196  0.05776 -0.03093 -1.14526  0.003433  0.001367  0.040513     2.511
   1.12207  0.06768 -0.03288 -1.14780  0.003807  0.001499  0.035469     2.540
   1.13350  0.07895 -0.03481 -1.14982  0.004156  0.001633  0.032380     2.545
   1.14613  0.09144 -0.03664 -1.15050  0.004542  0.001775  0.029183     2.559
   1.15994  0.10515 -0.03835 -1.14962  0.004966  0.001926  0.026088     2.579
   1.17469  0.11981 -0.03996 -1.14953  0.005318  0.002068  0.024556     2.572
   1.18993  0.13498 -0.04141 -1.14989  0.005649  0.002203  0.023303     2.565
   1.20552  0.15051 -0.04267 -1.15026  0.005979  0.002333  0.022068     2.563
   1.22143  0.16639 -0.04375 -1.15027  0.006319  0.002462  0.020786     2.567
   1.23764  0.18258 -0.04467 -1.15009  0.006652  0.002587  0.019658     2.571
   1.25400  0.19892 -0.04546 -1.15032  0.006940  0.002704  0.018942     2.566
   1.27036  0.21526 -0.04609 -1.15071  0.007212  0.002815  0.018324     2.562
   1.28677  0.23166 -0.04656 -1.15074  0.007505  0.002926  0.017541     2.565
   1.30335  0.24824 -0.04689 -1.15054  0.007803  0.003036  0.016772     2.570
   1.32002  0.26491 -0.04711 -1.15060  0.008063  0.003139  0.016263     2.569
   1.33663  0.28153 -0.04721 -1.15062  0.008320  0.003239  0.015766     2.569
   1.35321  0.29810 -0.04717 -1.15041  0.008589  0.003339  0.015205     2.572
   1.36986  0.31475 -0.04699 -1.14993  0.008870  0.003439  0.014603     2.579
   1.38656  0.33145 -0.04670 -1.14941  0.009139  0.003537  0.014090     2.584
   1.40323  0.34811 -0.04629 -1.14864  0.009422  0.003635  0.013537     2.592
   1.41985  0.36473 -0.04576 -1.14772  0.009703  0.003732  0.013015     2.600
   1.43647  0.38133 -0.04510 -1.14641  0.010016  0.003833  0.012400     2.613
   1.45309  0.39793 -0.04431 -1.14478  0.010345  0.003935  0.011767     2.629
   1.46972  0.41453 -0.04339 -1.14279  0.010700  0.004039  0.011098     2.649
   1.48633  0.43111 -0.04234 -1.14042  0.011084  0.004147  0.010393     2.673
   1.50291  0.44765 -0.04116 -1.13775  0.011491  0.004258  0.009686     2.699
   1.51945  0.46414 -0.03985 -1.13460  0.011954  0.004374  0.008897     2.733
   1.53596  0.48059 -0.03840 -1.13108  0.012461  0.004494  0.008084     2.773
   1.55247  0.49701 -0.03680 -1.12710  0.013043  0.004620  0.007202     2.823
   1.56903  0.51348 -0.03504 -1.12271  0.013708  0.004753  0.006270     2.884
   1.58574  0.53008 -0.03313 -1.11804  0.014445  0.004890  0.005347     2.954
   1.60264  0.54687 -0.03109 -1.11324  0.015239  0.005030  0.004479     3.029
   1.61973  0.56382 -0.02896 -1.10847  0.016057  0.005170  0.003715     3.106
   1.63695  0.58089 -0.02675 -1.10378  0.016891  0.005307  0.003050     3.183
   1.65426  0.59806 -0.02449 -1.09925  0.017725  0.005443  0.002486     3.257
   1.67164  0.61529 -0.02221 -1.09491  0.018538  0.005574  0.002023     3.326
   1.68905  0.63255 -0.01994 -1.09076  0.019317  0.005702  0.001652     3.388
   1.70644  0.64979 -0.01769 -1.08682  0.020054  0.005826  0.001359     3.442
   1.72377  0.66698 -0.01547 -1.08307  0.020747  0.005946  0.001128     3.489
   1.74101  0.68409 -0.01330 -1.07950  0.021386  0.006063  0.000952     3.527
   1.75815  0.70109 -0.01119 -1.07612  0.021963  0.006176  0.000826     3.556
   1.77520  0.71802 -0.00917 -1.07290  0.022462  0.006286  0.000748     3.573
   1.79217  0.73488 -0.00723 -1.06984  0.022883  0.006392  0.000712     3.580
   1.80907  0.75168 -0.00538 -1.06692  0.023222  0.006495  0.000714     3.575
   1.82588  0.76841 -0.00365 -1.06416  0.023476  0.006595  0.000753     3.559
   1.84259  0.78504 -0.00203 -1.06155  0.023630  0.006691  0.000834     3.531
   1.85920  0.80157 -0.00054 -1.05912  0.023685  0.006783  0.000957     3.492
   1.87568  0.81800  0.00080 -1.05689  0.023627  0.006870  0.001131     3.439
   1.89204  0.83432  0.00198 -1.05489  0.023451  0.006949  0.001364     3.374
   1.90829  0.85054  0.00299 -1.05320  0.023144  0.007020  0.001669     3.297
   1.92442  0.86665  0.00381 -1.05191  0.022705  0.007079  0.002059     3.207
   1.94041  0.88262  0.00443 -1.05112  0.022137  0.007123  0.002548     3.108
   1.95619  0.89840  0.00486 -1.05101  0.021436  0.007147  0.003157     2.999
   1.97170  0.91391  0.00506 -1.05181  0.020596  0.007145  0.003919     2.882
   1.98685  0.92905  0.00502 -1.05382  0.019616  0.007110  0.004872     2.759
   2.00150  0.94370  0.00473 -1.05743  0.018497  0.007032  0.006070     2.630
   2.01546  0.95766  0.00418 -1.06308  0.017257  0.006905  0.007574     2.499
   2.02853  0.97070  0.00337 -1.07133  0.015912  0.006721  0.009471     2.368
   2.04056  0.98268  0.00230 -1.08275  0.014490  0.006475  0.011873     2.238
   2.05143  0.99347  0.00100 -1.09800  0.013029  0.006167  0.014929     2.113
   2.05803  1.00000  0.00000 -1.09647  0.013396  0.006243  0.014099     2.146
   2.05803  1.00010 -0.00002  1.09647  0.160226  0.012032  0.000000    13.317
   2.06467  1.00659 -0.00141  1.09403  0.155817  0.012439  0.000000    12.526
   2.07243  1.01423 -0.00278  1.09134  0.153799  0.012883  0.000000    11.938
   2.08150  1.02318 -0.00420  1.08816  0.151794  0.013406  0.000000    11.323
   2.09210  1.03367 -0.00571  1.08438  0.149668  0.014026  0.000000    10.671
   2.10448  1.04595 -0.00732  1.07987  0.147279  0.014764  0.000000     9.975
   2.11896  1.06032 -0.00904  1.07448  0.144515  0.015648  0.000000     9.235
   2.13587  1.07714 -0.01087  1.06799  0.141260  0.016709  0.000000     8.454
   2.15564  1.09681 -0.01282  1.06016  0.137382  0.017991  0.000000     7.636
   2.17875  1.11983 -0.01488  1.05060  0.132738  0.019556  0.000000     6.788
   2.20575  1.14675 -0.01705  1.03876  0.127168  0.021498  0.000000     5.915
   2.23731  1.17822 -0.01930  1.02393  0.120504  0.023937  0.000000     5.034
   2.27420  1.21503 -0.02163  1.00483  0.112636  0.027101  0.000000     4.156
   2.31730  1.25808 -0.02401  0.98565  0.103261  0.030296  0.000000     3.408
   2.36768  1.30840 -0.02638  0.96843  0.092553  0.033144  0.000000     2.792
   2.42656  1.36723 -0.02871  0.95509  0.081039  0.035300  0.000000     2.296
   2.49537  1.43601 -0.03092  0.94777  0.069601  0.036432  0.000000     1.910
   2.57580  1.51641 -0.03293  0.94742  0.059303  0.036483  0.000000     1.626
   2.66978  1.61038 -0.03463  0.95275  0.050951  0.035768  0.000000     1.424
   2.77963  1.72022 -0.03590  0.96090  0.044731  0.034761  0.000000     1.287
   2.90801  1.84859 -0.03658  0.96936  0.040321  0.033787  0.000000     1.193
   3.05804  1.99863 -0.03647  0.98461  0.036223  0.032162  0.000000     1.126
