#    s        x        y     Ue/Vinf    Dstar     Theta      Cf       H
   0.00000  1.00000  0.00000  1.07042  0.121575  0.006181 -0.000252    19.669
   0.00667  0.99364  0.00201  1.07029  0.118232  0.006200 -0.000984    19.069
   0.01801  0.98283  0.00544  1.07030  0.114987  0.006204 -0.000984    18.536
   0.03089  0.97055  0.00931  1.07034  0.111451  0.006205 -0.000986    17.961
   0.04491  0.95712  0.01335  1.07040  0.107829  0.006204 -0.000988    17.381
   0.05974  0.94286  0.01740  1.07050  0.104227  0.006199 -0.000990    16.813
   0.07527  0.92786  0.02141  1.07063  0.100678  0.006191 -0.000993    16.261
   0.09142  0.91220  0.02541  1.07081  0.097135  0.006181 -0.000997    15.716
   0.10802  0.89609  0.02942  1.07100  0.093563  0.006168 -0.001002    15.169
   0.12488  0.87971  0.03341  1.07122  0.089970  0.006154 -0.001006    14.619
   0.14188  0.86318  0.03738  1.07147  0.086369  0.006139 -0.001012    14.069
   0.15896  0.84656  0.04130  1.07173  0.082764  0.006122 -0.001018    13.519
   0.17607  0.82989  0.04517  1.07203  0.079166  0.006104 -0.001024    12.970
   0.19318  0.81321  0.04899  1.07236  0.075580  0.006084 -0.001032    12.423
   0.21029  0.79652  0.05273  1.07273  0.072015  0.006062 -0.001040    11.879
   0.22743  0.77978  0.05643  1.07314  0.068463  0.006039 -0.001050    11.338
   0.24453  0.76308  0.06007  1.07360  0.064921  0.006013 -0.001060    10.798
   0.26151  0.74647  0.06361  1.07412  0.061426  0.005984 -0.001073    10.265
   0.27839  0.72994  0.06704  1.07471  0.058008  0.005953 -0.001086     9.745
   0.29522  0.71344  0.07036  1.07539  0.054658  0.005917 -0.001103     9.237
   0.31203  0.69694  0.07357  1.07618  0.051384  0.005878 -0.001121     8.742
   0.32881  0.68046  0.07667  1.07709  0.048194  0.005834 -0.001143     8.261
   0.34552  0.66401  0.07965  1.07814  0.045095  0.005786 -0.001169     7.794
   0.36216  0.64761  0.08250  1.07936  0.042099  0.005732 -0.001199     7.345
   0.37877  0.63123  0.08521  1.08078  0.039223  0.005672 -0.001236     6.915
   0.39539  0.61480  0.08779  1.08245  0.036461  0.005605 -0.001279     6.505
   0.41202  0.59836  0.09025  1.08439  0.033801  0.005532 -0.001330     6.110
   0.42857  0.58198  0.09257  1.08664  0.031259  0.005451 -0.001385     5.735
   0.44503  0.56566  0.09473  1.08927  0.028863  0.005362 -0.001422     5.383
   0.46148  0.54933  0.09674  1.09232  0.026616  0.005264 -0.001430     5.056
   0.47798  0.53293  0.09860  1.09587  0.024498  0.005158 -0.001373     4.750
   0.49446  0.51655  0.10033  1.09993  0.022503  0.005042 -0.001202     4.463
   0.51082  0.50026  0.10190  1.10448  0.020641  0.004919 -0.000874     4.196
   0.52710  0.48404  0.10328  1.10949  0.018961  0.004790 -0.000375     3.959
   0.54339  0.46779  0.10449  1.11505  0.017430  0.004652  0.000304     3.747
   0.55971  0.45151  0.10554  1.12120  0.016027  0.004505  0.001172     3.558
   0.57600  0.43525  0.10643  1.12789  0.014741  0.004350  0.002234     3.389
   0.59218  0.41907  0.10713  1.13497  0.013587  0.004190  0.003452     3.243
   0.60829  0.40298  0.10765  1.14225  0.012560  0.004029  0.004793     3.118
   0.62434  0.38693  0.10796  1.14955  0.011654  0.003868  0.006212     3.013
   0.64042  0.37085  0.10808  1.15669  0.010849  0.003709  0.007696     2.925
   0.65651  0.35476  0.10800  1.16356  0.010122  0.003554  0.009259     2.848
   0.67249  0.33878  0.10774  1.17008  0.009438  0.003401  0.011011     2.775
   0.68825  0.32303  0.10727  1.17583  0.008830  0.003255  0.012812     2.712
   0.70393  0.30737  0.10654  1.18045  0.008318  0.003120  0.014451     2.666
   0.71975  0.29158  0.10557  1.18397  0.007880  0.002992  0.015894     2.634
   0.73559  0.27578  0.10439  1.18703  0.007431  0.002863  0.017652     2.596
   0.75115  0.26028  0.10302  1.18930  0.006975  0.002735  0.019829     2.551
   0.76650  0.24502  0.10139  1.18947  0.006609  0.002621  0.021603     2.522
   0.78192  0.22972  0.09944  1.18775  0.006317  0.002516  0.022843     2.511
   0.79744  0.21436  0.09725  1.18540  0.006007  0.002408  0.024391     2.494
   0.81279  0.19920  0.09484  1.18203  0.005687  0.002299  0.026271     2.473
   0.82793  0.18429  0.09217  1.17681  0.005401  0.002196  0.027954     2.459
   0.84302  0.16950  0.08922  1.16986  0.005137  0.002096  0.029446     2.451
   0.85806  0.15481  0.08599  1.16150  0.004882  0.001994  0.030864     2.448
   0.87291  0.14036  0.08253  1.15215  0.004598  0.001887  0.032890     2.437
   0.88737  0.12638  0.07886  1.14090  0.004292  0.001778  0.035707     2.414
   0.90140  0.11290  0.07496  1.12589  0.004042  0.001678  0.037638     2.408
   0.91519  0.09977  0.07076  1.10851  0.003808  0.001578  0.039131     2.413
   0.92848  0.08721  0.06643  1.08999  0.003535  0.001469  0.041742     2.406
   0.94079  0.07568  0.06209  1.06843  0.003211  0.001358  0.046985     2.364
   0.95221  0.06515  0.05767  1.03884  0.003002  0.001272  0.049080     2.359
   0.96284  0.05550  0.05322  1.00717  0.002822  0.001188  0.049775     2.376
   0.97241  0.04692  0.04898  0.97685  0.002601  0.001092  0.052153     2.381
   0.98081  0.03952  0.04501  0.94449  0.002342  0.000996  0.057665     2.351
   0.98816  0.03319  0.04127  0.90549  0.002151  0.000918  0.060552     2.344
   0.99463  0.02777  0.03774  0.86279  0.001962  0.000844  0.064374     2.326
   1.00034  0.02313  0.03441  0.81384  0.001800  0.000780  0.067350     2.307
   1.00542  0.01915  0.03125  0.76029  0.001678  0.000725  0.067133     2.313
   1.00996  0.01574  0.02825  0.70272  0.001527  0.000669  0.070240     2.281
   1.01405  0.01281  0.02541  0.63794  0.001437  0.000626  0.066883     2.295
   1.01775  0.01030  0.02269  0.56966  0.001311  0.000577  0.067080     2.269
   1.02112  0.00816  0.02007  0.48951  0.001227  0.000547  0.063048     2.243
   1.02423  0.00634  0.01756  0.40644  0.001181  0.000519  0.052870     2.274
   1.02710  0.00481  0.01513  0.32072  0.001064  0.000472  0.047270     2.252
   1.02975  0.00353  0.01281  0.21999  0.001001  0.000449  0.035144     2.230
   1.03221  0.00250  0.01057  0.11594  0.000993  0.000445  0.018659     2.231
   1.03452  0.00166  0.00842  0.01572  0.000971  0.000435  0.002590     2.230
   1.03670  0.00100  0.00634 -0.08182  0.000971  0.000435  0.013484     2.230
   1.03878  0.00049  0.00433 -0.21816  0.000734  0.000335  0.049272     2.189
   1.04077  0.00014  0.00237 -0.36360  0.000778  0.000341  0.071591     2.278
   1.04268 -0.00001  0.00047 -0.50793  0.000727  0.000333  0.116104     2.186
   1.04452  0.00009 -0.00138 -0.67704  0.000687  0.000310  0.159993     2.214
   1.04638  0.00049 -0.00318 -0.83364  0.000710  0.000315  0.184051     2.252
   1.04830  0.00119 -0.00498 -0.95457  0.000794  0.000345  0.180049     2.302
   1.05035  0.00220 -0.00676 -1.05235  0.000869  0.000378  0.181564     2.301
   1.05254  0.00351 -0.00851 -1.12650  0.000986  0.000420  0.164093     2.347
   1.05487  0.00512 -0.01021 -1.17962  0.001110  0.000468  0.148978     2.371
   1.05738  0.00701 -0.01184 -1.21204  0.001284  0.000529  0.124788     2.430
   1.06008  0.00920 -0.01343 -1.23083  0.001467  0.000595  0.106836     2.466
   1.06301  0.01168 -0.01499 -1.23995  0.001677  0.000668  0.089863     2.510
   1.06622  0.01448 -0.01656 -1.24602  0.001867  0.000741  0.080287     2.520
   1.06978  0.01766 -0.01815 -1.24951  0.002074  0.000818  0.071092     2.537
   1.07377  0.02129 -0.01981 -1.25237  0.002274  0.000895  0.064790     2.540
   1.07825  0.02543 -0.02154 -1.25608  0.002460  0.000972  0.060725     2.530
   1.08332  0.03017 -0.02333 -1.25956  0.002665  0.001053  0.056173     2.531
   1.08907  0.03561 -0.02519 -1.26319  0.002874  0.001137  0.052383     2.528
   1.09564  0.04190 -0.02708 -1.26491  0.003137  0.001232  0.047090     2.547
   1.10320  0.04922 -0.02900 -1.26417  0.003449  0.001340  0.041487     2.575
   1.11196  0.05776 -0.03093 -1.26035  0.003830  0.001465  0.035608     2.615
   1.12207  0.06768 -0.03288 -1.25453  0.004245  0.001604  0.030786     2.647
   1.13350  0.07895 -0.03481 -1.24836  0.004651  0.001748  0.027527     2.660
   1.14613  0.09144 -0.03664 -1.24158  0.005088  0.001900  0.024511     2.677
   1.15994  0.10515 -0.03835 -1.23387  0.005575  0.002062  0.021539     2.703
   1.17469  0.11981 -0.03996 -1.22745  0.005978  0.002216  0.020122     2.698
   1.18993  0.13498 -0.04141 -1.22181  0.006370  0.002364  0.018883     2.694
   1.20552  0.15051 -0.04267 -1.21709  0.006729  0.002505  0.017979     2.686
   1.22143  0.16639 -0.04375 -1.21243  0.007116  0.002645  0.016856     2.690
   1.23764  0.18258 -0.04467 -1.20802  0.007495  0.002782  0.015864     2.694
   1.25400  0.19892 -0.04546 -1.20442  0.007818  0.002910  0.015299     2.687
   1.27036  0.21526 -0.04609 -1.20120  0.008132  0.003032  0.014750     2.682
   1.28677  0.23166 -0.04656 -1.19793  0.008470  0.003153  0.014059     2.686
   1.30335  0.24824 -0.04689 -1.19478  0.008802  0.003273  0.013433     2.690
   1.32002  0.26491 -0.04711 -1.19185  0.009118  0.003388  0.012911     2.691
   1.33663  0.28153 -0.04721 -1.18910  0.009422  0.003500  0.012448     2.692
   1.35321  0.29810 -0.04717 -1.18632  0.009739  0.003610  0.011940     2.697
   1.36986  0.31475 -0.04699 -1.18345  0.010070  0.003721  0.011399     2.706
   1.38656  0.33145 -0.04670 -1.18044  0.010419  0.003833  0.010824     2.718
   1.40323  0.34811 -0.04629 -1.17748  0.010758  0.003942  0.010321     2.729
   1.41985  0.36473 -0.04576 -1.17431  0.011127  0.004054  0.009749     2.745
   1.43647  0.38133 -0.04510 -1.17099  0.011518  0.004166  0.009158     2.764
   1.45309  0.39793 -0.04431 -1.16734  0.011957  0.004283  0.008485     2.792
   1.46972  0.41453 -0.04339 -1.16354  0.012417  0.004401  0.007826     2.822
   1.48633  0.43111 -0.04234 -1.15947  0.012929  0.004522  0.007116     2.859
   1.50291  0.44765 -0.04116 -1.15523  0.013480  0.004646  0.006401     2.901
   1.51945  0.46414 -0.03985 -1.15074  0.014101  0.004774  0.005640     2.954
   1.53596  0.48059 -0.03840 -1.14609  0.014786  0.004904  0.004868     3.015
   1.55247  0.49701 -0.03680 -1.14129  0.015559  0.005038  0.004073     3.088
   1.56903  0.51348 -0.03504 -1.13639  0.016438  0.005174  0.003262     3.177
   1.58574  0.53008 -0.03313 -1.13151  0.017405  0.005311  0.002491     3.277
   1.60264  0.54687 -0.03109 -1.12674  0.018448  0.005446  0.001788     3.388
   1.61973  0.56382 -0.02896 -1.12219  0.019530  0.005577  0.001189     3.502
   1.63695  0.58089 -0.02675 -1.11787  0.020634  0.005704  0.000691     3.617
   1.65426  0.59806 -0.02449 -1.11380  0.021749  0.005827  0.000287     3.732
   1.67164  0.61529 -0.02221 -1.10997  0.022844  0.005945 -0.000027     3.842
   1.68905  0.63255 -0.01994 -1.10636  0.023909  0.006060 -0.000268     3.946
   1.70644  0.64979 -0.01769 -1.10294  0.024926  0.006170 -0.000446     4.040
   1.72377  0.66698 -0.01547 -1.09971  0.025894  0.006278 -0.000578     4.125
   1.74101  0.68409 -0.01330 -1.09665  0.026801  0.006382 -0.000673     4.199
   1.75815  0.70109 -0.01119 -1.09373  0.027632  0.006484 -0.000737     4.262
   1.77520  0.71802 -0.00917 -1.09094  0.028373  0.006583 -0.000776     4.310
   1.79217  0.73488 -0.00723 -1.08826  0.029024  0.006681 -0.000797     4.345
   1.80907  0.75168 -0.00538 -1.08568  0.029576  0.006776 -0.000803     4.365
   1.82588  0.76841 -0.00365 -1.08320  0.030026  0.006870 -0.000795     4.370
   1.84259  0.78504 -0.00203 -1.08079  0.030356  0.006962 -0.000774     4.360
   1.85920  0.80157 -0.00054 -1.07845  0.030566  0.007053 -0.000739     4.334
   1.87568  0.81800  0.00080 -1.07618  0.030640  0.007143 -0.000686     4.289
   1.89204  0.83432  0.00198 -1.07395  0.030568  0.007231 -0.000612     4.227
   1.90829  0.85054  0.00299 -1.07177  0.030341  0.007319 -0.000510     4.146
   1.92442  0.86665  0.00381 -1.06965  0.029950  0.007404 -0.000368     4.045
   1.94041  0.88262  0.00443 -1.06761  0.029402  0.007488 -0.000177     3.927
   1.95619  0.89840  0.00486 -1.06572  0.028688  0.007566  0.000081     3.792
   1.97170  0.91391  0.00506 -1.06406  0.027802  0.007635  0.000428     3.641
   1.98685  0.92905  0.00502 -1.06280  0.026744  0.007690  0.000891     3.478
   2.00150  0.94370  0.00473 -1.06217  0.025521  0.007722  0.001498     3.305
   2.01546  0.95766  0.00418 -1.06245  0.024154  0.007723  0.002277     3.127
   2.02853  0.97070  0.00337 -1.06397  0.022672  0.007684  0.003257     2.951
   2.04056  0.98268  0.00230 -1.06702  0.021124  0.007597  0.004455     2.780
   2.05143  0.99347  0.00100 -1.07175  0.019581  0.007465  0.005863     2.623
   2.05803  1.00000  0.00000 -1.07042  0.019980  0.007525  0.005526     2.655
   2.05803  1.00010 -0.00002  1.07042  0.141555  0.013706  0.000000    10.328
   2.06467  1.00659 -0.00142  1.06798  0.136725  0.014087  0.000000     9.706
   2.07243  1.01422 -0.00281  1.06533  0.134418  0.014496  0.000000     9.273
   2.08150  1.02317 -0.00427  1.06218  0.132119  0.014977  0.000000     8.822
   2.09210  1.03365 -0.00583  1.05844  0.129692  0.015547  0.000000     8.342
   2.10448  1.04592 -0.00752  1.05395  0.126991  0.016228  0.000000     7.826
   2.11896  1.06028 -0.00934  1.04854  0.123907  0.017044  0.000000     7.270
   2.13587  1.07708 -0.01131  1.04199  0.120331  0.018030  0.000000     6.674
   2.15564  1.09674 -0.01344  1.03397  0.116147  0.019232  0.000000     6.039
   2.17875  1.11973 -0.01574  1.02392  0.111240  0.020735  0.000000     5.365
   2.20575  1.14662 -0.01821  1.01118  0.105495  0.022638  0.000000     4.660
   2.23731  1.17807 -0.02087  0.99545  0.098794  0.024989  0.000000     3.954
   2.27420  1.21484 -0.02370  0.98037  0.090929  0.027238  0.000000     3.338
   2.31730  1.25784 -0.02671  0.96647  0.082069  0.029284  0.000000     2.803
   2.36768  1.30812 -0.02990  0.95538  0.072556  0.030871  0.000000     2.350
   2.42656  1.36691 -0.03325  0.94889  0.062991  0.031760  0.000000     1.983
   2.49537  1.43563 -0.03674  0.94807  0.054153  0.031866  0.000000     1.699
   2.57580  1.51597 -0.04035  0.95233  0.046719  0.031356  0.000000     1.490
   2.66978  1.60989 -0.04404  0.95959  0.040971  0.030554  0.000000     1.341
   2.77963  1.71967 -0.04777  0.96752  0.036771  0.029738  0.000000     1.236
   2.90801  1.84799 -0.05149  0.97475  0.033785  0.029039  0.000000     1.163
   3.05804  1.99798 -0.05512  0.98623  0.031080  0.027991  0.000000     1.110
