#    s        x        y     Ue/Vinf    Dstar     Theta      Cf       H
   0.00000  1.00000  0.00000  1.10279  0.152973  0.005698 -0.000267    26.845
   0.00667  0.99364  0.00201  1.10268  0.149608  0.005717 -0.001087    26.169
   0.01801  0.98283  0.00544  1.10268  0.146135  0.005722 -0.001087    25.539
   0.03089  0.97055  0.00931  1.10269  0.142302  0.005726 -0.001087    24.850
   0.04491  0.95712  0.01335  1.10272  0.138326  0.005729 -0.001087    24.146
   0.05974  0.94286  0.01740  1.10277  0.134325  0.005729 -0.001088    23.446
   0.07527  0.92786  0.02141  1.10284  0.130338  0.005727 -0.001090    22.760
   0.09142  0.91220  0.02541  1.10293  0.126319  0.005723 -0.001092    22.073
   0.10802  0.89609  0.02942  1.10303  0.122241  0.005718 -0.001094    21.379
   0.12488  0.87971  0.03341  1.10314  0.118117  0.005712 -0.001097    20.678
   0.14188  0.86318  0.03738  1.10326  0.113962  0.005706 -0.001100    19.971
   0.15896  0.84656  0.04130  1.10338  0.109782  0.005700 -0.001103    19.259
   0.17607  0.82989  0.04517  1.10351  0.105587  0.005694 -0.001106    18.545
   0.19318  0.81321  0.04899  1.10365  0.101389  0.005687 -0.001109    17.829
   0.21029  0.79652  0.05273  1.10381  0.097190  0.005679 -0.001113    17.114
   0.22743  0.77978  0.05643  1.10398  0.092985  0.005671 -0.001118    16.398
   0.24453  0.76308  0.06007  1.10416  0.088771  0.005662 -0.001123    15.679
   0.26151  0.74647  0.06361  1.10436  0.084591  0.005652 -0.001128    14.967
   0.27839  0.72994  0.06704  1.10459  0.080466  0.005640 -0.001134    14.267
   0.29522  0.71344  0.07036  1.10485  0.076395  0.005627 -0.001141    13.577
   0.31203  0.69694  0.07357  1.10515  0.072380  0.005611 -0.001149    12.899
   0.32881  0.68046  0.07667  1.10550  0.068428  0.005593 -0.001159    12.234
   0.34552  0.66401  0.07965  1.10591  0.064549  0.005573 -0.001170    11.583
   0.36216  0.64761  0.08250  1.10639  0.060757  0.005549 -0.001182    10.949
   0.37877  0.63123  0.08521  1.10695  0.057065  0.005521 -0.001197    10.336
   0.39539  0.61480  0.08779  1.10762  0.053466  0.005489 -0.001214     9.740
   0.41202  0.59836  0.09025  1.10841  0.049948  0.005453 -0.001235     9.160
   0.42857  0.58198  0.09257  1.10934  0.046539  0.005412 -0.001259     8.600
   0.44503  0.56566  0.09473  1.11045  0.043259  0.005365 -0.001288     8.064
   0.46148  0.54933  0.09674  1.11176  0.040110  0.005312 -0.001323     7.551
   0.47798  0.53293  0.09860  1.11332  0.037078  0.005251 -0.001366     7.060
   0.49446  0.51655  0.10033  1.11518  0.034158  0.005184 -0.001418     6.589
   0.51082  0.50026  0.10190  1.11737  0.031382  0.005109 -0.001481     6.142
   0.52710  0.48404  0.10328  1.11997  0.028771  0.005025 -0.001549     5.725
   0.54339  0.46779  0.10449  1.12307  0.026333  0.004932 -0.001593     5.339
   0.55971  0.45151  0.10554  1.12675  0.024030  0.004828 -0.001593     4.977
   0.57600  0.43525  0.10643  1.13105  0.021868  0.004714 -0.001481     4.639
   0.59218  0.41907  0.10713  1.13602  0.019879  0.004591 -0.001190     4.330
   0.60829  0.40298  0.10765  1.14159  0.018066  0.004460 -0.000668     4.051
   0.62434  0.38693  0.10796  1.14782  0.016426  0.004320  0.000112     3.802
   0.64042  0.37085  0.10808  1.15482  0.014950  0.004169  0.001148     3.586
   0.65651  0.35476  0.10800  1.16254  0.013618  0.004009  0.002439     3.397
   0.67249  0.33878  0.10774  1.17082  0.012406  0.003842  0.004016     3.229
   0.68825  0.32303  0.10727  1.17931  0.011346  0.003675  0.005780     3.088
   0.70393  0.30737  0.10654  1.18766  0.010445  0.003510  0.007594     2.976
   0.71975  0.29158  0.10557  1.19565  0.009684  0.003349  0.009360     2.891
   0.73559  0.27578  0.10439  1.20343  0.008962  0.003190  0.011399     2.810
   0.75115  0.26028  0.10302  1.21063  0.008283  0.003034  0.013758     2.730
   0.76650  0.24502  0.10139  1.21627  0.007737  0.002892  0.015835     2.675
   0.78192  0.22972  0.09944  1.22040  0.007295  0.002761  0.017533     2.642
   0.79744  0.21436  0.09725  1.22383  0.006864  0.002630  0.019406     2.609
   0.81279  0.19920  0.09484  1.22649  0.006424  0.002500  0.021726     2.570
   0.82793  0.18429  0.09217  1.22707  0.006072  0.002381  0.023506     2.551
   0.84302  0.16950  0.08922  1.22653  0.005737  0.002263  0.025293     2.535
   0.85806  0.15481  0.08599  1.22493  0.005407  0.002145  0.027219     2.521
   0.87291  0.14036  0.08253  1.22222  0.005071  0.002025  0.029480     2.504
   0.88737  0.12638  0.07886  1.21812  0.004718  0.001904  0.032479     2.478
   0.90140  0.11290  0.07496  1.21106  0.004413  0.001792  0.035050     2.463
   0.91519  0.09977  0.07076  1.20146  0.004164  0.001684  0.036480     2.473
   0.92848  0.08721  0.06643  1.19208  0.003838  0.001563  0.040030     2.455
   0.94079  0.07568  0.06209  1.17970  0.003487  0.001446  0.045541     2.412
   0.95221  0.06515  0.05767  1.16069  0.003259  0.001351  0.047937     2.412
   0.96284  0.05550  0.05322  1.14056  0.003052  0.001256  0.049467     2.429
   0.97241  0.04692  0.04898  1.12175  0.002805  0.001154  0.052838     2.430
   0.98081  0.03952  0.04501  1.10148  0.002521  0.001052  0.059724     2.397
   0.98816  0.03319  0.04127  1.07494  0.002306  0.000967  0.064497     2.385
   0.99463  0.02777  0.03774  1.04470  0.002102  0.000889  0.070123     2.364
   1.00034  0.02313  0.03441  1.00968  0.001937  0.000821  0.073919     2.359
   1.00542  0.01915  0.03125  0.97076  0.001762  0.000756  0.080254     2.331
   1.00996  0.01574  0.02825  0.92506  0.001638  0.000703  0.082321     2.331
   1.01405  0.01281  0.02541  0.87600  0.001504  0.000650  0.086186     2.314
   1.01775  0.01030  0.02269  0.81852  0.001380  0.000605  0.090567     2.281
   1.02112  0.00816  0.02007  0.75368  0.001314  0.000572  0.086111     2.299
   1.02423  0.00634  0.01756  0.68736  0.001209  0.000530  0.086900     2.280
   1.02710  0.00481  0.01513  0.60986  0.001124  0.000499  0.084993     2.252
   1.02975  0.00353  0.01281  0.52384  0.001083  0.000482  0.076417     2.245
   1.03221  0.00250  0.01057  0.43899  0.001045  0.000461  0.064853     2.269
   1.03452  0.00166  0.00842  0.35283  0.000945  0.000416  0.057523     2.271
   1.03670  0.00100  0.00634  0.24608  0.000864  0.000390  0.046084     2.216
   1.03878  0.00049  0.00433  0.13077  0.000894  0.000400  0.023300     2.236
   1.04077  0.00014  0.00237  0.01968  0.000826  0.000370  0.003804     2.230
   1.04268 -0.00001  0.00047 -0.09792  0.000826  0.000370  0.019012     2.230
   1.04452  0.00009 -0.00138 -0.26027  0.000638  0.000291  0.067466     2.191
   1.04638  0.00049 -0.00318 -0.41545  0.000741  0.000320  0.083048     2.312
   1.04830  0.00119 -0.00498 -0.54803  0.000760  0.000344  0.117432     2.211
   1.05035  0.00220 -0.00676 -0.66865  0.000851  0.000371  0.118162     2.296
   1.05254  0.00351 -0.00851 -0.76271  0.000937  0.000410  0.123761     2.287
   1.05487  0.00512 -0.01021 -0.83915  0.001049  0.000453  0.118070     2.317
   1.05738  0.00701 -0.01184 -0.89513  0.001191  0.000507  0.107517     2.351
   1.06008  0.00920 -0.01343 -0.93530  0.001351  0.000568  0.096202     2.380
   1.06301  0.01168 -0.01499 -0.96586  0.001514  0.000632  0.087265     2.396
   1.06622  0.01448 -0.01656 -0.99200  0.001667  0.000695  0.081115     2.399
   1.06978  0.01766 -0.01815 -1.01178  0.001863  0.000767  0.071833     2.429
   1.07377  0.02129 -0.01981 -1.03070  0.002020  0.000835  0.068157     2.419
   1.07825  0.02543 -0.02154 -1.04898  0.002188  0.000904  0.064068     2.419
   1.08332  0.03017 -0.02333 -1.06700  0.002356  0.000975  0.060680     2.417
   1.08907  0.03561 -0.02519 -1.08464  0.002533  0.001048  0.057358     2.417
   1.09564  0.04190 -0.02708 -1.09933  0.002765  0.001134  0.052097     2.438
   1.10320  0.04922 -0.02900 -1.11074  0.003035  0.001233  0.046756     2.463
   1.11196  0.05776 -0.03093 -1.11829  0.003363  0.001348  0.041092     2.495
   1.12207  0.06768 -0.03288 -1.12300  0.003721  0.001477  0.036320     2.519
   1.13350  0.07895 -0.03481 -1.12664  0.004071  0.001611  0.033002     2.528
   1.14613  0.09144 -0.03664 -1.12936  0.004434  0.001749  0.030122     2.535
   1.15994  0.10515 -0.03835 -1.13009  0.004851  0.001898  0.026906     2.557
   1.17469  0.11981 -0.03996 -1.13131  0.005202  0.002038  0.025251     2.552
   1.18993  0.13498 -0.04141 -1.13296  0.005523  0.002171  0.024016     2.544
   1.20552  0.15051 -0.04267 -1.13449  0.005845  0.002299  0.022772     2.543
   1.22143  0.16639 -0.04375 -1.13546  0.006182  0.002426  0.021421     2.548
   1.23764  0.18258 -0.04467 -1.13630  0.006500  0.002549  0.020338     2.550
   1.25400  0.19892 -0.04546 -1.13737  0.006784  0.002664  0.019584     2.547
   1.27036  0.21526 -0.04609 -1.13855  0.007050  0.002773  0.018952     2.542
   1.28677  0.23166 -0.04656 -1.13930  0.007337  0.002882  0.018147     2.546
   1.30335  0.24824 -0.04689 -1.13979  0.007625  0.002989  0.017381     2.551
   1.32002  0.26491 -0.04711 -1.14037  0.007887  0.003092  0.016808     2.551
   1.33663  0.28153 -0.04721 -1.14115  0.008122  0.003188  0.016399     2.547
   1.35321  0.29810 -0.04717 -1.14142  0.008392  0.003287  0.015774     2.553
   1.36986  0.31475 -0.04699 -1.14145  0.008666  0.003386  0.015165     2.560
   1.38656  0.33145 -0.04670 -1.14142  0.008927  0.003482  0.014648     2.564
   1.40323  0.34811 -0.04629 -1.14117  0.009195  0.003577  0.014116     2.571
   1.41985  0.36473 -0.04576 -1.14069  0.009469  0.003672  0.013582     2.578
   1.43647  0.38133 -0.04510 -1.13981  0.009769  0.003771  0.012968     2.591
   1.45309  0.39793 -0.04431 -1.13860  0.010085  0.003870  0.012339     2.606
   1.46972  0.41453 -0.04339 -1.13703  0.010421  0.003972  0.011680     2.624
   1.48633  0.43111 -0.04234 -1.13507  0.010785  0.004077  0.010988     2.645
   1.50291  0.44765 -0.04116 -1.13275  0.011173  0.004185  0.010279     2.670
   1.51945  0.46414 -0.03985 -1.12988  0.011619  0.004299  0.009473     2.702
   1.53596  0.48059 -0.03840 -1.12669  0.012094  0.004416  0.008676     2.738
   1.55247  0.49701 -0.03680 -1.12293  0.012652  0.004541  0.007773     2.786
   1.56903  0.51348 -0.03504 -1.11873  0.013283  0.004672  0.006832     2.843
   1.58574  0.53008 -0.03313 -1.11420  0.013986  0.004809  0.005888     2.908
   1.60264  0.54687 -0.03109 -1.10949  0.014740  0.004948  0.005003     2.979
   1.61973  0.56382 -0.02896 -1.10476  0.015522  0.005088  0.004212     3.051
   1.63695  0.58089 -0.02675 -1.10012  0.016310  0.005226  0.003532     3.121
   1.65426  0.59806 -0.02449 -1.09558  0.017103  0.005361  0.002946     3.190
   1.67164  0.61529 -0.02221 -1.09122  0.017873  0.005494  0.002466     3.253
   1.68905  0.63255 -0.01994 -1.08705  0.018609  0.005623  0.002080     3.309
   1.70644  0.64979 -0.01769 -1.08309  0.019300  0.005748  0.001777     3.358
   1.72377  0.66698 -0.01547 -1.07930  0.019951  0.005870  0.001535     3.399
   1.74101  0.68409 -0.01330 -1.07571  0.020551  0.005987  0.001351     3.432
   1.75815  0.70109 -0.01119 -1.07230  0.021090  0.006101  0.001219     3.457
   1.77520  0.71802 -0.00917 -1.06908  0.021553  0.006211  0.001141     3.470
   1.79217  0.73488 -0.00723 -1.06601  0.021943  0.006318  0.001106     3.473
   1.80907  0.75168 -0.00538 -1.06312  0.022251  0.006421  0.001115     3.465
   1.82588  0.76841 -0.00365 -1.06039  0.022479  0.006520  0.001163     3.448
   1.84259  0.78504 -0.00203 -1.05784  0.022611  0.006615  0.001258     3.418
   1.85920  0.80157 -0.00054 -1.05550  0.022649  0.006705  0.001399     3.378
   1.87568  0.81800  0.00080 -1.05340  0.022578  0.006788  0.001596     3.326
   1.89204  0.83432  0.00198 -1.05158  0.022393  0.006863  0.001857     3.263
   1.90829  0.85054  0.00299 -1.05013  0.022084  0.006928  0.002196     3.188
   1.92442  0.86665  0.00381 -1.04914  0.021648  0.006979  0.002627     3.102
   1.94041  0.88262  0.00443 -1.04873  0.021088  0.007014  0.003163     3.007
   1.95619  0.89840  0.00486 -1.04910  0.020401  0.007027  0.003828     2.903
   1.97170  0.91391  0.00506 -1.05048  0.019582  0.007012  0.004655     2.793
   1.98685  0.92905  0.00502 -1.05319  0.018627  0.006962  0.005689     2.676
   2.00150  0.94370  0.00473 -1.05765  0.017539  0.006868  0.006988     2.554
   2.01546  0.95766  0.00418 -1.06435  0.016333  0.006724  0.008622     2.429
   2.02853  0.97070  0.00337 -1.07386  0.015022  0.006522  0.010696     2.303
   2.04056  0.98268  0.00230 -1.08688  0.013635  0.006258  0.013347     2.179
   2.05143  0.99347  0.00100 -1.10426  0.012197  0.005928  0.016782     2.057
   2.05803  1.00000  0.00000 -1.10279  0.012559  0.006004  0.015833     2.092
   2.05803  1.00010 -0.00002  1.10279  0.165532  0.011703  0.000000    14.145
   2.06467  1.00659 -0.00141  1.10033  0.161210  0.012121  0.000000    13.300
   2.07243  1.01423 -0.00277  1.09760  0.159256  0.012579  0.000000    12.660
   2.08150  1.02318 -0.00419  1.09439  0.157317  0.013119  0.000000    11.992
   2.09210  1.03367 -0.00568  1.09058  0.155260  0.013758  0.000000    11.285
   2.10448  1.04596 -0.00728  1.08604  0.152944  0.014519  0.000000    10.534
   2.11896  1.06033 -0.00897  1.08061  0.150255  0.015429  0.000000     9.738
   2.13587  1.07715 -0.01077  1.07410  0.147077  0.016522  0.000000     8.902
   2.15564  1.09683 -0.01268  1.06626  0.143277  0.017839  0.000000     8.032
   2.17875  1.11985 -0.01468  1.05672  0.138706  0.019443  0.000000     7.134
   2.20575  1.14677 -0.01678  1.04496  0.133198  0.021425  0.000000     6.217
   2.23731  1.17826 -0.01895  1.03034  0.126569  0.023898  0.000000     5.296
   2.27420  1.21508 -0.02116  1.01159  0.118692  0.027096  0.000000     4.381
   2.31730  1.25813 -0.02339  0.99097  0.109303  0.030642  0.000000     3.567
   2.36768  1.30846 -0.02558  0.97248  0.098394  0.033819  0.000000     2.909
   2.42656  1.36730 -0.02767  0.95758  0.086484  0.036332  0.000000     2.380
   2.49537  1.43608 -0.02959  0.94857  0.074438  0.037795  0.000000     1.970
   2.57580  1.51649 -0.03124  0.94675  0.063383  0.038073  0.000000     1.665
   2.66978  1.61047 -0.03249  0.95122  0.054263  0.037440  0.000000     1.449
   2.77963  1.72031 -0.03319  0.95918  0.047398  0.036402  0.000000     1.302
   2.90801  1.84869 -0.03317  0.96789  0.042507  0.035348  0.000000     1.203
   3.05804  1.99872 -0.03222  0.98431  0.037909  0.033515  0.000000     1.131
