#    s        x        y     Ue/Vinf    Dstar     Theta      Cf       H
   0.00000  1.00000  0.00000  1.10216  0.152352  0.005707 -0.000267    26.694
   0.00667  0.99364  0.00201  1.10205  0.148987  0.005726 -0.001085    26.020
   0.01801  0.98283  0.00544  1.10205  0.145518  0.005731 -0.001085    25.392
   0.03089  0.97055  0.00931  1.10206  0.141691  0.005735 -0.001085    24.705
   0.04491  0.95712  0.01335  1.10209  0.137722  0.005738 -0.001085    24.002
   0.05974  0.94286  0.01740  1.10214  0.133728  0.005738 -0.001086    23.306
   0.07527  0.92786  0.02141  1.10221  0.129748  0.005736 -0.001088    22.622
   0.09142  0.91220  0.02541  1.10230  0.125738  0.005731 -0.001090    21.938
   0.10802  0.89609  0.02942  1.10240  0.121669  0.005726 -0.001092    21.247
   0.12488  0.87971  0.03341  1.10252  0.117555  0.005721 -0.001095    20.549
   0.14188  0.86318  0.03738  1.10263  0.113410  0.005715 -0.001098    19.845
   0.15896  0.84656  0.04130  1.10276  0.109240  0.005709 -0.001101    19.136
   0.17607  0.82989  0.04517  1.10289  0.105057  0.005702 -0.001104    18.425
   0.19318  0.81321  0.04899  1.10304  0.100869  0.005695 -0.001108    17.713
   0.21029  0.79652  0.05273  1.10320  0.096682  0.005687 -0.001112    17.001
   0.22743  0.77978  0.05643  1.10337  0.092488  0.005678 -0.001116    16.288
   0.24453  0.76308  0.06007  1.10355  0.088288  0.005669 -0.001121    15.574
   0.26151  0.74647  0.06361  1.10376  0.084118  0.005659 -0.001126    14.865
   0.27839  0.72994  0.06704  1.10399  0.080007  0.005647 -0.001133    14.168
   0.29522  0.71344  0.07036  1.10425  0.075947  0.005633 -0.001140    13.481
   0.31203  0.69694  0.07357  1.10456  0.071947  0.005618 -0.001148    12.807
   0.32881  0.68046  0.07667  1.10492  0.068007  0.005599 -0.001158    12.146
   0.34552  0.66401  0.07965  1.10533  0.064144  0.005578 -0.001169    11.499
   0.36216  0.64761  0.08250  1.10582  0.060365  0.005554 -0.001181    10.869
   0.37877  0.63123  0.08521  1.10640  0.056689  0.005526 -0.001196    10.259
   0.39539  0.61480  0.08779  1.10708  0.053106  0.005493 -0.001214     9.667
   0.41202  0.59836  0.09025  1.10788  0.049604  0.005456 -0.001235     9.091
   0.42857  0.58198  0.09257  1.10883  0.046207  0.005414 -0.001260     8.534
   0.44503  0.56566  0.09473  1.10995  0.042945  0.005367 -0.001289     8.002
   0.46148  0.54933  0.09674  1.11129  0.039813  0.005313 -0.001325     7.493
   0.47798  0.53293  0.09860  1.11288  0.036800  0.005252 -0.001368     7.007
   0.49446  0.51655  0.10033  1.11477  0.033895  0.005184 -0.001422     6.539
   0.51082  0.50026  0.10190  1.11699  0.031135  0.005108 -0.001485     6.095
   0.52710  0.48404  0.10328  1.11964  0.028547  0.005023 -0.001552     5.683
   0.54339  0.46779  0.10449  1.12279  0.026122  0.004929 -0.001592     5.300
   0.55971  0.45151  0.10554  1.12651  0.023839  0.004824 -0.001584     4.941
   0.57600  0.43525  0.10643  1.13087  0.021694  0.004710 -0.001458     4.606
   0.59218  0.41907  0.10713  1.13589  0.019727  0.004585 -0.001149     4.302
   0.60829  0.40298  0.10765  1.14150  0.017930  0.004453 -0.000604     4.026
   0.62434  0.38693  0.10796  1.14779  0.016307  0.004313  0.000197     3.781
   0.64042  0.37085  0.10808  1.15483  0.014847  0.004161  0.001249     3.568
   0.65651  0.35476  0.10800  1.16260  0.013520  0.004000  0.002573     3.380
   0.67249  0.33878  0.10774  1.17088  0.012328  0.003834  0.004150     3.216
   0.68825  0.32303  0.10727  1.17937  0.011278  0.003666  0.005928     3.076
   0.70393  0.30737  0.10654  1.18766  0.010394  0.003502  0.007725     2.968
   0.71975  0.29158  0.10557  1.19558  0.009642  0.003342  0.009481     2.885
   0.73559  0.27578  0.10439  1.20334  0.008920  0.003182  0.011551     2.803
   0.75115  0.26028  0.10302  1.21045  0.008248  0.003027  0.013906     2.725
   0.76650  0.24502  0.10139  1.21596  0.007708  0.002886  0.015971     2.671
   0.78192  0.22972  0.09944  1.21995  0.007274  0.002756  0.017629     2.639
   0.79744  0.21436  0.09725  1.22332  0.006843  0.002625  0.019520     2.607
   0.81279  0.19920  0.09484  1.22586  0.006408  0.002495  0.021821     2.568
   0.82793  0.18429  0.09217  1.22640  0.006050  0.002376  0.023679     2.547
   0.84302  0.16950  0.08922  1.22569  0.005713  0.002258  0.025526     2.530
   0.85806  0.15481  0.08599  1.22367  0.005400  0.002142  0.027246     2.520
   0.87291  0.14036  0.08253  1.22086  0.005069  0.002023  0.029425     2.505
   0.88737  0.12638  0.07886  1.21689  0.004707  0.001901  0.032582     2.476
   0.90140  0.11290  0.07496  1.20963  0.004407  0.001789  0.035058     2.463
   0.91519  0.09977  0.07076  1.20001  0.004155  0.001681  0.036562     2.472
   0.92848  0.08721  0.06643  1.19046  0.003828  0.001561  0.040159     2.453
   0.94079  0.07568  0.06209  1.17779  0.003477  0.001443  0.045730     2.409
   0.95221  0.06515  0.05767  1.15836  0.003259  0.001350  0.047763     2.414
   0.96284  0.05550  0.05322  1.13836  0.003040  0.001254  0.049783     2.424
   0.97241  0.04692  0.04898  1.11885  0.002799  0.001153  0.052969     2.428
   0.98081  0.03952  0.04501  1.09821  0.002523  0.001052  0.059345     2.399
   0.98816  0.03319  0.04127  1.07193  0.002301  0.000966  0.064543     2.383
   0.99463  0.02777  0.03774  1.04133  0.002099  0.000888  0.070080     2.363
   1.00034  0.02313  0.03441  1.00592  0.001932  0.000820  0.074064     2.356
   1.00542  0.01915  0.03125  0.96645  0.001764  0.000756  0.079764     2.332
   1.00996  0.01574  0.02825  0.92090  0.001637  0.000703  0.082005     2.330
   1.01405  0.01281  0.02541  0.87177  0.001504  0.000650  0.085795     2.315
   1.01775  0.01030  0.02269  0.81437  0.001379  0.000604  0.089995     2.283
   1.02112  0.00816  0.02007  0.74883  0.001307  0.000571  0.086824     2.289
   1.02423  0.00634  0.01756  0.68173  0.001217  0.000532  0.084830     2.290
   1.02710  0.00481  0.01513  0.60572  0.001117  0.000496  0.085133     2.250
   1.02975  0.00353  0.01281  0.51886  0.001078  0.000479  0.075676     2.249
   1.03221  0.00250  0.01057  0.43160  0.001036  0.000460  0.065497     2.249
   1.03452  0.00166  0.00842  0.34400  0.000972  0.000427  0.054445     2.273
   1.03670  0.00100  0.00634  0.24274  0.000885  0.000400  0.044541     2.213
   1.03878  0.00049  0.00433  0.13246  0.000907  0.000405  0.023063     2.243
   1.04077  0.00014  0.00237  0.01728  0.000763  0.000342  0.003632     2.230
   1.04268 -0.00001  0.00047 -0.12043  0.000763  0.000342  0.025254     2.230
   1.04452  0.00009 -0.00138 -0.27049  0.000703  0.000318  0.062506     2.213
   1.04638  0.00049 -0.00318 -0.41623  0.000743  0.000329  0.087251     2.259
   1.04830  0.00119 -0.00498 -0.55647  0.000754  0.000339  0.118541     2.226
   1.05035  0.00220 -0.00676 -0.67811  0.000842  0.000367  0.121754     2.292
   1.05254  0.00351 -0.00851 -0.77092  0.000941  0.000409  0.123097     2.299
   1.05487  0.00512 -0.01021 -0.84441  0.001057  0.000455  0.117493     2.321
   1.05738  0.00701 -0.01184 -0.90094  0.001188  0.000507  0.109198     2.344
   1.06008  0.00920 -0.01343 -0.94059  0.001357  0.000569  0.095812     2.385
   1.06301  0.01168 -0.01499 -0.97101  0.001514  0.000632  0.087866     2.394
   1.06622  0.01448 -0.01656 -0.99612  0.001677  0.000697  0.080397     2.406
   1.06978  0.01766 -0.01815 -1.01636  0.001858  0.000767  0.072741     2.424
   1.07377  0.02129 -0.01981 -1.03440  0.002032  0.000837  0.067493     2.427
   1.07825  0.02543 -0.02154 -1.05253  0.002191  0.000906  0.064213     2.419
   1.08332  0.03017 -0.02333 -1.07096  0.002352  0.000975  0.061218     2.413
   1.08907  0.03561 -0.02519 -1.08796  0.002543  0.001050  0.057010     2.422
   1.09564  0.04190 -0.02708 -1.10255  0.002768  0.001135  0.052183     2.439
   1.10320  0.04922 -0.02900 -1.11378  0.003040  0.001234  0.046744     2.464
   1.11196  0.05776 -0.03093 -1.12103  0.003371  0.001350  0.040984     2.497
   1.12207  0.06768 -0.03288 -1.12552  0.003729  0.001479  0.036241     2.521
   1.13350  0.07895 -0.03481 -1.12898  0.004080  0.001613  0.032933     2.530
   1.14613  0.09144 -0.03664 -1.13148  0.004445  0.001751  0.030023     2.538
   1.15994  0.10515 -0.03835 -1.13182  0.004871  0.001902  0.026696     2.562
   1.17469  0.11981 -0.03996 -1.13310  0.005208  0.002041  0.025264     2.552
   1.18993  0.13498 -0.04141 -1.13465  0.005533  0.002174  0.023979     2.546
   1.20552  0.15051 -0.04267 -1.13615  0.005853  0.002301  0.022758     2.543
   1.22143  0.16639 -0.04375 -1.13701  0.006194  0.002429  0.021371     2.550
   1.23764  0.18258 -0.04467 -1.13754  0.006526  0.002554  0.020171     2.555
   1.25400  0.19892 -0.04546 -1.13873  0.006792  0.002667  0.019585     2.547
   1.27036  0.21526 -0.04609 -1.13977  0.007066  0.002777  0.018887     2.544
   1.28677  0.23166 -0.04656 -1.14049  0.007351  0.002886  0.018109     2.547
   1.30335  0.24824 -0.04689 -1.14088  0.007643  0.002994  0.017315     2.553
   1.32002  0.26491 -0.04711 -1.14145  0.007902  0.003096  0.016769     2.552
   1.33663  0.28153 -0.04721 -1.14208  0.008144  0.003194  0.016317     2.550
   1.35321  0.29810 -0.04717 -1.14229  0.008414  0.003293  0.015700     2.555
   1.36986  0.31475 -0.04699 -1.14234  0.008682  0.003390  0.015131     2.561
   1.38656  0.33145 -0.04670 -1.14222  0.008949  0.003487  0.014587     2.566
   1.40323  0.34811 -0.04629 -1.14190  0.009219  0.003583  0.014049     2.573
   1.41985  0.36473 -0.04576 -1.14143  0.009488  0.003678  0.013542     2.580
   1.43647  0.38133 -0.04510 -1.14046  0.009795  0.003777  0.012905     2.593
   1.45309  0.39793 -0.04431 -1.13919  0.010113  0.003877  0.012270     2.609
   1.46972  0.41453 -0.04339 -1.13764  0.010444  0.003978  0.011639     2.625
   1.48633  0.43111 -0.04234 -1.13558  0.010817  0.004085  0.010918     2.648
   1.50291  0.44765 -0.04116 -1.13324  0.011204  0.004192  0.010219     2.672
   1.51945  0.46414 -0.03985 -1.13036  0.011650  0.004307  0.009420     2.705
   1.53596  0.48059 -0.03840 -1.12712  0.012131  0.004424  0.008614     2.742
   1.55247  0.49701 -0.03680 -1.12334  0.012690  0.004549  0.007716     2.790
   1.56903  0.51348 -0.03504 -1.11914  0.013320  0.004680  0.006785     2.846
   1.58574  0.53008 -0.03313 -1.11459  0.014028  0.004817  0.005840     2.912
   1.60264  0.54687 -0.03109 -1.10987  0.014787  0.004956  0.004953     2.984
   1.61973  0.56382 -0.02896 -1.10514  0.015571  0.005095  0.004166     3.056
   1.63695  0.58089 -0.02675 -1.10048  0.016365  0.005234  0.003485     3.127
   1.65426  0.59806 -0.02449 -1.09595  0.017161  0.005369  0.002901     3.196
   1.67164  0.61529 -0.02221 -1.09159  0.017932  0.005502  0.002426     3.259
   1.68905  0.63255 -0.01994 -1.08742  0.018674  0.005631  0.002039     3.316
   1.70644  0.64979 -0.01769 -1.08345  0.019372  0.005756  0.001734     3.366
   1.72377  0.66698 -0.01547 -1.07967  0.020026  0.005877  0.001495     3.407
   1.74101  0.68409 -0.01330 -1.07608  0.020629  0.005995  0.001311     3.441
   1.75815  0.70109 -0.01119 -1.07268  0.021171  0.006109  0.001181     3.466
   1.77520  0.71802 -0.00917 -1.06945  0.021639  0.006219  0.001102     3.480
   1.79217  0.73488 -0.00723 -1.06638  0.022031  0.006326  0.001067     3.483
   1.80907  0.75168 -0.00538 -1.06349  0.022342  0.006429  0.001075     3.475
   1.82588  0.76841 -0.00365 -1.06075  0.022572  0.006528  0.001123     3.458
   1.84259  0.78504 -0.00203 -1.05820  0.022707  0.006623  0.001216     3.429
   1.85920  0.80157 -0.00054 -1.05585  0.022746  0.006713  0.001355     3.389
   1.87568  0.81800  0.00080 -1.05373  0.022676  0.006796  0.001550     3.337
   1.89204  0.83432  0.00198 -1.05190  0.022492  0.006872  0.001808     3.273
   1.90829  0.85054  0.00299 -1.05042  0.022184  0.006937  0.002144     3.198
   1.92442  0.86665  0.00381 -1.04940  0.021747  0.006989  0.002571     3.112
   1.94041  0.88262  0.00443 -1.04895  0.021187  0.007025  0.003102     3.016
   1.95619  0.89840  0.00486 -1.04927  0.020498  0.007039  0.003762     2.912
   1.97170  0.91391  0.00506 -1.05059  0.019677  0.007025  0.004583     2.801
   1.98685  0.92905  0.00502 -1.05324  0.018719  0.006976  0.005609     2.683
   2.00150  0.94370  0.00473 -1.05762  0.017629  0.006884  0.006898     2.561
   2.01546  0.95766  0.00418 -1.06421  0.016419  0.006742  0.008520     2.435
   2.02853  0.97070  0.00337 -1.07360  0.015105  0.006541  0.010576     2.309
   2.04056  0.98268  0.00230 -1.08647  0.013714  0.006278  0.013203     2.184
   2.05143  0.99347  0.00100 -1.10364  0.012273  0.005951  0.016601     2.062
   2.05803  1.00000  0.00000 -1.10216  0.012636  0.006027  0.015663     2.096
   2.05803  1.00010 -0.00002  1.10216  0.164988  0.011735  0.000000    14.060
   2.06467  1.00659 -0.00141  1.09970  0.160657  0.012152  0.000000    13.221
   2.07243  1.01423 -0.00277  1.09698  0.158697  0.012609  0.000000    12.586
   2.08150  1.02318 -0.00419  1.09377  0.156752  0.013146  0.000000    11.924
   2.09210  1.03367 -0.00569  1.08996  0.154688  0.013784  0.000000    11.223
   2.10448  1.04596 -0.00728  1.08543  0.152364  0.014543  0.000000    10.477
   2.11896  1.06033 -0.00898  1.08000  0.149668  0.015450  0.000000     9.687
   2.13587  1.07715 -0.01078  1.07349  0.146482  0.016539  0.000000     8.857
   2.15564  1.09683 -0.01269  1.06565  0.142674  0.017852  0.000000     7.992
   2.17875  1.11985 -0.01470  1.05611  0.138096  0.019453  0.000000     7.099
   2.20575  1.14677 -0.01681  1.04434  0.132581  0.021431  0.000000     6.186
   2.23731  1.17825 -0.01898  1.02970  0.125948  0.023900  0.000000     5.270
   2.27420  1.21507 -0.02121  1.01091  0.118072  0.027095  0.000000     4.358
   2.31730  1.25812 -0.02345  0.99042  0.108683  0.030608  0.000000     3.551
   2.36768  1.30845 -0.02566  0.97205  0.097792  0.033752  0.000000     2.897
   2.42656  1.36729 -0.02778  0.95731  0.085919  0.036228  0.000000     2.372
   2.49537  1.43608 -0.02972  0.94847  0.073933  0.037657  0.000000     1.963
   2.57580  1.51648 -0.03141  0.94680  0.062954  0.037910  0.000000     1.661
   2.66978  1.61046 -0.03270  0.95137  0.053914  0.037267  0.000000     1.447
   2.77963  1.72030 -0.03346  0.95935  0.047116  0.036231  0.000000     1.300
   2.90801  1.84868 -0.03351  0.96804  0.042277  0.035186  0.000000     1.202
   3.05804  1.99871 -0.03264  0.98434  0.037733  0.033374  0.000000     1.131
