#    s        x        y     Ue/Vinf    Dstar     Theta      Cf       H
   0.00000  1.00000  0.00000  1.10404  0.154227  0.005680 -0.000268    27.152
   0.00667  0.99364  0.00201  1.10394  0.150860  0.005699 -0.001091    26.473
   0.01801  0.98283  0.00544  1.10394  0.147378  0.005704 -0.001091    25.839
   0.03089  0.97055  0.00931  1.10395  0.143535  0.005708 -0.001091    25.146
   0.04491  0.95712  0.01335  1.10398  0.139546  0.005711 -0.001092    24.436
   0.05974  0.94286  0.01740  1.10402  0.135529  0.005711 -0.001093    23.731
   0.07527  0.92786  0.02141  1.10409  0.131526  0.005709 -0.001094    23.039
   0.09142  0.91220  0.02541  1.10418  0.127490  0.005705 -0.001096    22.347
   0.10802  0.89609  0.02942  1.10428  0.123394  0.005700 -0.001098    21.648
   0.12488  0.87971  0.03341  1.10439  0.119251  0.005695 -0.001101    20.940
   0.14188  0.86318  0.03738  1.10450  0.115075  0.005689 -0.001104    20.227
   0.15896  0.84656  0.04130  1.10462  0.110874  0.005683 -0.001107    19.509
   0.17607  0.82989  0.04517  1.10475  0.106659  0.005677 -0.001110    18.788
   0.19318  0.81321  0.04899  1.10489  0.102438  0.005670 -0.001113    18.066
   0.21029  0.79652  0.05273  1.10504  0.098216  0.005663 -0.001117    17.343
   0.22743  0.77978  0.05643  1.10520  0.093987  0.005655 -0.001121    16.620
   0.24453  0.76308  0.06007  1.10538  0.089749  0.005647 -0.001126    15.894
   0.26151  0.74647  0.06361  1.10557  0.085544  0.005637 -0.001131    15.175
   0.27839  0.72994  0.06704  1.10579  0.081393  0.005626 -0.001137    14.467
   0.29522  0.71344  0.07036  1.10604  0.077296  0.005613 -0.001144    13.770
   0.31203  0.69694  0.07357  1.10633  0.073255  0.005599 -0.001152    13.085
   0.32881  0.68046  0.07667  1.10667  0.069275  0.005581 -0.001161    12.412
   0.34552  0.66401  0.07965  1.10706  0.065369  0.005561 -0.001171    11.754
   0.36216  0.64761  0.08250  1.10752  0.061548  0.005538 -0.001184    11.113
   0.37877  0.63123  0.08521  1.10806  0.057825  0.005512 -0.001198    10.491
   0.39539  0.61480  0.08779  1.10871  0.054197  0.005481 -0.001215     9.888
   0.41202  0.59836  0.09025  1.10947  0.050648  0.005446 -0.001235     9.301
   0.42857  0.58198  0.09257  1.11037  0.047205  0.005406 -0.001258     8.733
   0.44503  0.56566  0.09473  1.11144  0.043892  0.005360 -0.001286     8.189
   0.46148  0.54933  0.09674  1.11271  0.040712  0.005308 -0.001320     7.669
   0.47798  0.53293  0.09860  1.11422  0.037645  0.005250 -0.001361     7.171
   0.49446  0.51655  0.10033  1.11601  0.034692  0.005184 -0.001412     6.692
   0.51082  0.50026  0.10190  1.11814  0.031880  0.005111 -0.001472     6.238
   0.52710  0.48404  0.10328  1.12066  0.029236  0.005029 -0.001541     5.814
   0.54339  0.46779  0.10449  1.12366  0.026755  0.004937 -0.001593     5.419
   0.55971  0.45151  0.10554  1.12723  0.024419  0.004836 -0.001606     5.050
   0.57600  0.43525  0.10643  1.13142  0.022221  0.004724 -0.001522     4.704
   0.59218  0.41907  0.10713  1.13628  0.020198  0.004602 -0.001270     4.389
   0.60829  0.40298  0.10765  1.14177  0.018352  0.004472 -0.000794     4.104
   0.62434  0.38693  0.10796  1.14790  0.016674  0.004334 -0.000057     3.847
   0.64042  0.37085  0.10808  1.15480  0.015170  0.004185  0.000935     3.625
   0.65651  0.35476  0.10800  1.16244  0.013807  0.004026  0.002193     3.429
   0.67249  0.33878  0.10774  1.17069  0.012563  0.003860  0.003753     3.255
   0.68825  0.32303  0.10727  1.17919  0.011482  0.003692  0.005493     3.110
   0.70393  0.30737  0.10654  1.18760  0.010563  0.003527  0.007290     2.995
   0.71975  0.29158  0.10557  1.19572  0.009782  0.003366  0.009064     2.907
   0.73559  0.27578  0.10439  1.20367  0.009040  0.003204  0.011128     2.821
   0.75115  0.26028  0.10302  1.21102  0.008352  0.003048  0.013470     2.740
   0.76650  0.24502  0.10139  1.21686  0.007797  0.002905  0.015552     2.684
   0.78192  0.22972  0.09944  1.22121  0.007349  0.002773  0.017238     2.651
   0.79744  0.21436  0.09725  1.22495  0.006904  0.002640  0.019179     2.615
   0.81279  0.19920  0.09484  1.22786  0.006458  0.002508  0.021525     2.575
   0.82793  0.18429  0.09217  1.22866  0.006101  0.002388  0.023319     2.555
   0.84302  0.16950  0.08922  1.22837  0.005759  0.002270  0.025174     2.537
   0.85806  0.15481  0.08599  1.22688  0.005432  0.002152  0.027037     2.524
   0.87291  0.14036  0.08253  1.22439  0.005098  0.002032  0.029219     2.509
   0.88737  0.12638  0.07886  1.22072  0.004738  0.001910  0.032293     2.481
   0.90140  0.11290  0.07496  1.21398  0.004435  0.001797  0.034786     2.468
   0.91519  0.09977  0.07076  1.20496  0.004170  0.001687  0.036566     2.472
   0.92848  0.08721  0.06643  1.19552  0.003856  0.001568  0.039754     2.460
   0.94079  0.07568  0.06209  1.18380  0.003495  0.001449  0.045576     2.413
   0.95221  0.06515  0.05767  1.16495  0.003269  0.001354  0.047860     2.414
   0.96284  0.05550  0.05322  1.14525  0.003063  0.001259  0.049287     2.433
   0.97241  0.04692  0.04898  1.12696  0.002805  0.001156  0.053219     2.428
   0.98081  0.03952  0.04501  1.10661  0.002537  0.001055  0.059168     2.404
   0.98816  0.03319  0.04127  1.08131  0.002309  0.000968  0.064708     2.386
   0.99463  0.02777  0.03774  1.05137  0.002106  0.000890  0.070359     2.366
   1.00034  0.02313  0.03441  1.01640  0.001935  0.000822  0.074903     2.354
   1.00542  0.01915  0.03125  0.97705  0.001775  0.000760  0.079826     2.336
   1.00996  0.01574  0.02825  0.93281  0.001647  0.000705  0.082282     2.334
   1.01405  0.01281  0.02541  0.88471  0.001507  0.000651  0.086911     2.314
   1.01775  0.01030  0.02269  0.82863  0.001391  0.000606  0.089668     2.296
   1.02112  0.00816  0.02007  0.76462  0.001295  0.000568  0.090400     2.278
   1.02423  0.00634  0.01756  0.69551  0.001226  0.000535  0.085839     2.291
   1.02710  0.00481  0.01513  0.62160  0.001126  0.000499  0.086058     2.258
   1.02975  0.00353  0.01281  0.53618  0.001074  0.000479  0.078765     2.245
   1.03221  0.00250  0.01057  0.45011  0.001037  0.000457  0.067016     2.269
   1.03452  0.00166  0.00842  0.36181  0.000946  0.000419  0.059590     2.259
   1.03670  0.00100  0.00634  0.25491  0.000912  0.000417  0.046475     2.186
   1.03878  0.00049  0.00433  0.15452  0.000976  0.000428  0.024212     2.279
   1.04077  0.00014  0.00237  0.04745  0.000730  0.000327  0.010409     2.230
   1.04268 -0.00001  0.00047 -0.10308  0.000730  0.000327  0.022593     2.230
   1.04452  0.00009 -0.00138 -0.24831  0.000733  0.000329  0.054171     2.230
   1.04638  0.00049 -0.00318 -0.39432  0.000730  0.000328  0.086513     2.228
   1.04830  0.00119 -0.00498 -0.53532  0.000763  0.000339  0.110329     2.249
   1.05035  0.00220 -0.00676 -0.65094  0.000854  0.000373  0.115671     2.287
   1.05254  0.00351 -0.00851 -0.74809  0.000931  0.000408  0.122971     2.280
   1.05487  0.00512 -0.01021 -0.82473  0.001051  0.000453  0.115263     2.322
   1.05738  0.00701 -0.01184 -0.88373  0.001174  0.000503  0.109265     2.335
   1.06008  0.00920 -0.01343 -0.92445  0.001351  0.000566  0.094505     2.386
   1.06301  0.01168 -0.01499 -0.95711  0.001494  0.000627  0.088842     2.382
   1.06622  0.01448 -0.01656 -0.98146  0.001683  0.000696  0.078107     2.417
   1.06978  0.01766 -0.01815 -1.00351  0.001836  0.000762  0.073792     2.409
   1.07377  0.02129 -0.01981 -1.02243  0.002020  0.000833  0.067302     2.424
   1.07825  0.02543 -0.02154 -1.04147  0.002175  0.000901  0.064359     2.413
   1.08332  0.03017 -0.02333 -1.05985  0.002348  0.000972  0.060575     2.415
   1.08907  0.03561 -0.02519 -1.07762  0.002528  0.001046  0.057109     2.417
   1.09564  0.04190 -0.02708 -1.09330  0.002746  0.001130  0.052564     2.431
   1.10320  0.04922 -0.02900 -1.10518  0.003022  0.001228  0.046879     2.460
   1.11196  0.05776 -0.03093 -1.11279  0.003355  0.001345  0.040976     2.495
   1.12207  0.06768 -0.03288 -1.11831  0.003695  0.001471  0.036719     2.512
   1.13350  0.07895 -0.03481 -1.12222  0.004054  0.001606  0.033106     2.525
   1.14613  0.09144 -0.03664 -1.12500  0.004423  0.001745  0.030099     2.535
   1.15994  0.10515 -0.03835 -1.12596  0.004836  0.001893  0.026973     2.554
   1.17469  0.11981 -0.03996 -1.12766  0.005173  0.002032  0.025481     2.546
   1.18993  0.13498 -0.04141 -1.12951  0.005500  0.002165  0.024139     2.541
   1.20552  0.15051 -0.04267 -1.13122  0.005823  0.002293  0.022868     2.540
   1.22143  0.16639 -0.04375 -1.13259  0.006146  0.002418  0.021637     2.542
   1.23764  0.18258 -0.04467 -1.13357  0.006471  0.002541  0.020469     2.546
   1.25400  0.19892 -0.04546 -1.13478  0.006756  0.002656  0.019694     2.543
   1.27036  0.21526 -0.04609 -1.13615  0.007018  0.002765  0.019079     2.539
   1.28677  0.23166 -0.04656 -1.13705  0.007304  0.002873  0.018271     2.542
   1.30335  0.24824 -0.04689 -1.13759  0.007597  0.002981  0.017460     2.548
   1.32002  0.26491 -0.04711 -1.13840  0.007848  0.003082  0.016950     2.546
   1.33663  0.28153 -0.04721 -1.13915  0.008093  0.003180  0.016464     2.545
   1.35321  0.29810 -0.04717 -1.13962  0.008352  0.003277  0.015899     2.549
   1.36986  0.31475 -0.04699 -1.13970  0.008631  0.003376  0.015255     2.557
   1.38656  0.33145 -0.04670 -1.13977  0.008889  0.003471  0.014746     2.561
   1.40323  0.34811 -0.04629 -1.13964  0.009152  0.003566  0.014231     2.566
   1.41985  0.36473 -0.04576 -1.13928  0.009421  0.003661  0.013706     2.574
   1.43647  0.38133 -0.04510 -1.13850  0.009719  0.003758  0.013091     2.586
   1.45309  0.39793 -0.04431 -1.13732  0.010039  0.003858  0.012435     2.602
   1.46972  0.41453 -0.04339 -1.13590  0.010364  0.003959  0.011811     2.618
   1.48633  0.43111 -0.04234 -1.13397  0.010730  0.004064  0.011095     2.640
   1.50291  0.44765 -0.04116 -1.13169  0.011118  0.004172  0.010377     2.665
   1.51945  0.46414 -0.03985 -1.12895  0.011551  0.004285  0.009597     2.696
   1.53596  0.48059 -0.03840 -1.12578  0.012027  0.004402  0.008783     2.732
   1.55247  0.49701 -0.03680 -1.12207  0.012580  0.004526  0.007881     2.779
   1.56903  0.51348 -0.03504 -1.11793  0.013201  0.004657  0.006946     2.835
   1.58574  0.53008 -0.03313 -1.11343  0.013898  0.004793  0.005998     2.900
   1.60264  0.54687 -0.03109 -1.10873  0.014647  0.004932  0.005103     2.970
   1.61973  0.56382 -0.02896 -1.10403  0.015418  0.005071  0.004313     3.040
   1.63695  0.58089 -0.02675 -1.09938  0.016203  0.005210  0.003623     3.110
   1.65426  0.59806 -0.02449 -1.09485  0.016986  0.005346  0.003036     3.178
   1.67164  0.61529 -0.02221 -1.09049  0.017747  0.005478  0.002554     3.240
   1.68905  0.63255 -0.01994 -1.08632  0.018476  0.005607  0.002165     3.295
   1.70644  0.64979 -0.01769 -1.08235  0.019159  0.005733  0.001859     3.342
   1.72377  0.66698 -0.01547 -1.07856  0.019802  0.005854  0.001616     3.382
   1.74101  0.68409 -0.01330 -1.07497  0.020395  0.005972  0.001430     3.415
   1.75815  0.70109 -0.01119 -1.07156  0.020927  0.006086  0.001298     3.438
   1.77520  0.71802 -0.00917 -1.06833  0.021383  0.006196  0.001220     3.451
   1.79217  0.73488 -0.00723 -1.06527  0.021766  0.006303  0.001186     3.453
   1.80907  0.75168 -0.00538 -1.06239  0.022069  0.006406  0.001196     3.445
   1.82588  0.76841 -0.00365 -1.05967  0.022293  0.006505  0.001246     3.427
   1.84259  0.78504 -0.00203 -1.05714  0.022421  0.006599  0.001343     3.397
   1.85920  0.80157 -0.00054 -1.05482  0.022456  0.006688  0.001487     3.357
   1.87568  0.81800  0.00080 -1.05274  0.022382  0.006771  0.001689     3.306
   1.89204  0.83432  0.00198 -1.05097  0.022197  0.006845  0.001955     3.243
   1.90829  0.85054  0.00299 -1.04956  0.021888  0.006908  0.002300     3.168
   1.92442  0.86665  0.00381 -1.04863  0.021452  0.006958  0.002739     3.083
   1.94041  0.88262  0.00443 -1.04830  0.020895  0.006991  0.003284     2.989
   1.95619  0.89840  0.00486 -1.04876  0.020211  0.007002  0.003960     2.886
   1.97170  0.91391  0.00506 -1.05025  0.019396  0.006985  0.004799     2.777
   1.98685  0.92905  0.00502 -1.05311  0.018445  0.006932  0.005849     2.661
   2.00150  0.94370  0.00473 -1.05773  0.017364  0.006836  0.007166     2.540
   2.01546  0.95766  0.00418 -1.06462  0.016164  0.006689  0.008825     2.416
   2.02853  0.97070  0.00337 -1.07438  0.014861  0.006484  0.010933     2.292
   2.04056  0.98268  0.00230 -1.08771  0.013479  0.006216  0.013634     2.169
   2.05143  0.99347  0.00100 -1.10549  0.012047  0.005883  0.017143     2.048
   2.05803  1.00000  0.00000 -1.10404  0.012407  0.005959  0.016171     2.082
   2.05803  1.00010 -0.00002  1.10404  0.166634  0.011639  0.000000    14.316
   2.06467  1.00659 -0.00141  1.10158  0.162329  0.012060  0.000000    13.460
   2.07243  1.01423 -0.00277  1.09885  0.160387  0.012521  0.000000    12.809
   2.08150  1.02318 -0.00418  1.09563  0.158461  0.013064  0.000000    12.130
   2.09210  1.03368 -0.00568  1.09182  0.156418  0.013707  0.000000    11.411
   2.10448  1.04596 -0.00727  1.08727  0.154117  0.014473  0.000000    10.648
   2.11896  1.06033 -0.00896  1.08183  0.151443  0.015389  0.000000     9.841
   2.13587  1.07716 -0.01075  1.07532  0.148281  0.016487  0.000000     8.994
   2.15564  1.09683 -0.01265  1.06748  0.144496  0.017811  0.000000     8.113
   2.17875  1.11985 -0.01465  1.05794  0.139941  0.019424  0.000000     7.204
   2.20575  1.14678 -0.01673  1.04619  0.134447  0.021415  0.000000     6.278
   2.23731  1.17826 -0.01888  1.03162  0.127827  0.023895  0.000000     5.349
   2.27420  1.21508 -0.02107  1.01296  0.119949  0.027096  0.000000     4.427
   2.31730  1.25813 -0.02326  0.99209  0.110561  0.030709  0.000000     3.600
   2.36768  1.30847 -0.02542  0.97335  0.099617  0.033953  0.000000     2.934
   2.42656  1.36731 -0.02747  0.95814  0.087632  0.036541  0.000000     2.398
   2.49537  1.43610 -0.02933  0.94878  0.075467  0.038075  0.000000     1.982
   2.57580  1.51650 -0.03090  0.94665  0.064258  0.038404  0.000000     1.673
   2.66978  1.61049 -0.03206  0.95093  0.054977  0.037792  0.000000     1.455
   2.77963  1.72033 -0.03265  0.95883  0.047973  0.036750  0.000000     1.305
   2.90801  1.84871 -0.03249  0.96758  0.042978  0.035679  0.000000     1.205
   3.05804  1.99874 -0.03137  0.98426  0.038268  0.033800  0.000000     1.132
