#    s        x        y     Ue/Vinf    Dstar     Theta      Cf       H
   0.00000  1.00000  0.00000  1.12871  0.181276  0.005309 -0.000280    34.143
   0.00667  0.99364  0.00201  1.12862  0.177883  0.005327 -0.001187    33.395
   0.01801  0.98283  0.00544  1.12863  0.174224  0.005331 -0.001186    32.679
   0.03089  0.97055  0.00931  1.12863  0.170151  0.005336 -0.001186    31.888
   0.04491  0.95712  0.01335  1.12866  0.165891  0.005339 -0.001186    31.071
   0.05974  0.94286  0.01740  1.12869  0.161570  0.005340 -0.001187    30.255
   0.07527  0.92786  0.02141  1.12875  0.157234  0.005340 -0.001188    29.447
   0.09142  0.91220  0.02541  1.12881  0.152839  0.005337 -0.001189    28.635
   0.10802  0.89609  0.02942  1.12888  0.148364  0.005335 -0.001190    27.810
   0.12488  0.87971  0.03341  1.12896  0.143823  0.005332 -0.001192    26.972
   0.14188  0.86318  0.03738  1.12904  0.139234  0.005330 -0.001194    26.123
   0.15896  0.84656  0.04130  1.12911  0.134605  0.005328 -0.001195    25.265
   0.17607  0.82989  0.04517  1.12919  0.129948  0.005326 -0.001197    24.401
   0.19318  0.81321  0.04899  1.12927  0.125273  0.005324 -0.001199    23.531
   0.21029  0.79652  0.05273  1.12936  0.120584  0.005322 -0.001201    22.658
   0.22743  0.77978  0.05643  1.12944  0.115875  0.005320 -0.001203    21.781
   0.24453  0.76308  0.06007  1.12953  0.111145  0.005318 -0.001206    20.898
   0.26151  0.74647  0.06361  1.12963  0.106435  0.005317 -0.001208    20.019
   0.27839  0.72994  0.06704  1.12973  0.101770  0.005314 -0.001211    19.150
   0.29522  0.71344  0.07036  1.12984  0.097145  0.005311 -0.001215    18.291
   0.31203  0.69694  0.07357  1.12997  0.092564  0.005307 -0.001219    17.443
   0.32881  0.68046  0.07667  1.13013  0.088029  0.005301 -0.001223    16.605
   0.34552  0.66401  0.07965  1.13030  0.083554  0.005294 -0.001228    15.782
   0.36216  0.64761  0.08250  1.13051  0.079154  0.005286 -0.001235    14.975
   0.37877  0.63123  0.08521  1.13075  0.074840  0.005275 -0.001242    14.189
   0.39539  0.61480  0.08779  1.13105  0.070602  0.005261 -0.001251    13.420
   0.41202  0.59836  0.09025  1.13140  0.066428  0.005245 -0.001261    12.665
   0.42857  0.58198  0.09257  1.13181  0.062348  0.005226 -0.001273    11.931
   0.44503  0.56566  0.09473  1.13231  0.058383  0.005203 -0.001287    11.221
   0.46148  0.54933  0.09674  1.13291  0.054538  0.005176 -0.001304    10.537
   0.47798  0.53293  0.09860  1.13363  0.050788  0.005144 -0.001324     9.874
   0.49446  0.51655  0.10033  1.13450  0.047136  0.005107 -0.001348     9.230
   0.51082  0.50026  0.10190  1.13554  0.043614  0.005065 -0.001377     8.611
   0.52710  0.48404  0.10328  1.13680  0.040248  0.005016 -0.001412     8.024
   0.54339  0.46779  0.10449  1.13832  0.037032  0.004960 -0.001455     7.466
   0.55971  0.45151  0.10554  1.14017  0.033949  0.004896 -0.001509     6.934
   0.57600  0.43525  0.10643  1.14238  0.031000  0.004824 -0.001576     6.427
   0.59218  0.41907  0.10713  1.14505  0.028222  0.004742 -0.001655     5.951
   0.60829  0.40298  0.10765  1.14827  0.025620  0.004651 -0.001728     5.509
   0.62434  0.38693  0.10796  1.15214  0.023202  0.004548 -0.001754     5.101
   0.64042  0.37085  0.10808  1.15678  0.020964  0.004434 -0.001673     4.728
   0.65651  0.35476  0.10800  1.16226  0.018896  0.004308 -0.001384     4.386
   0.67249  0.33878  0.10774  1.16850  0.016984  0.004173 -0.000782     4.070
   0.68825  0.32303  0.10727  1.17551  0.015281  0.004029  0.000167     3.792
   0.70393  0.30737  0.10654  1.18339  0.013803  0.003875  0.001414     3.562
   0.71975  0.29158  0.10557  1.19214  0.012506  0.003711  0.002923     3.370
   0.73559  0.27578  0.10439  1.20161  0.011317  0.003538  0.004803     3.199
   0.75115  0.26028  0.10302  1.21133  0.010262  0.003364  0.006999     3.050
   0.76650  0.24502  0.10139  1.22068  0.009389  0.003197  0.009212     2.937
   0.78192  0.22972  0.09944  1.22930  0.008690  0.003037  0.011190     2.861
   0.79744  0.21436  0.09725  1.23763  0.008030  0.002878  0.013426     2.790
   0.81279  0.19920  0.09484  1.24531  0.007409  0.002722  0.015991     2.722
   0.82793  0.18429  0.09217  1.25123  0.006924  0.002581  0.018034     2.683
   0.84302  0.16950  0.08922  1.25641  0.006459  0.002441  0.020279     2.646
   0.85806  0.15481  0.08599  1.26042  0.006037  0.002304  0.022457     2.620
   0.87291  0.14036  0.08253  1.26358  0.005617  0.002168  0.025002     2.591
   0.88737  0.12638  0.07886  1.26560  0.005193  0.002032  0.028210     2.555
   0.90140  0.11290  0.07496  1.26504  0.004836  0.001907  0.030917     2.536
   0.91519  0.09977  0.07076  1.26262  0.004523  0.001785  0.033080     2.534
   0.92848  0.08721  0.06643  1.25992  0.004164  0.001656  0.036616     2.514
   0.94079  0.07568  0.06209  1.25532  0.003777  0.001529  0.042176     2.470
   0.95221  0.06515  0.05767  1.24514  0.003507  0.001423  0.045278     2.465
   0.96284  0.05550  0.05322  1.23358  0.003280  0.001321  0.047004     2.484
   0.97241  0.04692  0.04898  1.22372  0.002998  0.001210  0.051387     2.477
   0.98081  0.03952  0.04501  1.21225  0.002705  0.001104  0.058058     2.450
   0.98816  0.03319  0.04127  1.19628  0.002456  0.001011  0.064452     2.429
   0.99463  0.02777  0.03774  1.17616  0.002231  0.000928  0.071475     2.405
   1.00034  0.02313  0.03441  1.15109  0.002042  0.000855  0.077650     2.389
   1.00542  0.01915  0.03125  1.12159  0.001866  0.000789  0.084703     2.366
   1.00996  0.01574  0.02825  1.08662  0.001725  0.000731  0.089417     2.358
   1.01405  0.01281  0.02541  1.04818  0.001590  0.000677  0.094453     2.349
   1.01775  0.01030  0.02269  1.00346  0.001446  0.000626  0.103227     2.309
   1.02112  0.00816  0.02007  0.94904  0.001363  0.000589  0.103207     2.313
   1.02423  0.00634  0.01756  0.89172  0.001265  0.000550  0.105901     2.299
   1.02710  0.00481  0.01513  0.82675  0.001177  0.000516  0.107167     2.282
   1.02975  0.00353  0.01281  0.75277  0.001106  0.000490  0.106357     2.256
   1.03221  0.00250  0.01057  0.67367  0.001071  0.000471  0.096844     2.272
   1.03452  0.00166  0.00842  0.59404  0.001006  0.000445  0.092104     2.259
   1.03670  0.00100  0.00634  0.50528  0.000956  0.000427  0.083597     2.241
   1.03878  0.00049  0.00433  0.41252  0.000922  0.000407  0.069259     2.267
   1.04077  0.00014  0.00237  0.31449  0.000827  0.000366  0.059080     2.261
   1.04268 -0.00001  0.00047  0.19169  0.000748  0.000335  0.041024     2.230
   1.04452  0.00009 -0.00138  0.05226  0.000746  0.000335  0.011205     2.230
   1.04638  0.00049 -0.00318 -0.08791  0.000746  0.000335  0.018874     2.230
   1.04830  0.00119 -0.00498 -0.23989  0.000724  0.000325  0.053256     2.224
   1.05035  0.00220 -0.00676 -0.37277  0.000831  0.000364  0.068440     2.282
   1.05254  0.00351 -0.00851 -0.48689  0.000886  0.000395  0.087183     2.240
   1.05487  0.00512 -0.01021 -0.58094  0.001009  0.000438  0.086187     2.302
   1.05738  0.00701 -0.01184 -0.65303  0.001128  0.000490  0.086765     2.302
   1.06008  0.00920 -0.01343 -0.71029  0.001273  0.000547  0.081370     2.329
   1.06301  0.01168 -0.01499 -0.75721  0.001410  0.000604  0.077974     2.335
   1.06622  0.01448 -0.01656 -0.79666  0.001562  0.000665  0.072926     2.350
   1.06978  0.01766 -0.01815 -0.83020  0.001723  0.000729  0.068081     2.363
   1.07377  0.02129 -0.01981 -0.86095  0.001876  0.000794  0.064797     2.364
   1.07825  0.02543 -0.02154 -0.89057  0.002025  0.000858  0.062179     2.362
   1.08332  0.03017 -0.02333 -0.91975  0.002174  0.000921  0.059949     2.360
   1.08907  0.03561 -0.02519 -0.94690  0.002352  0.000992  0.056448     2.371
   1.09564  0.04190 -0.02708 -0.97159  0.002552  0.001071  0.052704     2.384
   1.10320  0.04922 -0.02900 -0.99209  0.002807  0.001165  0.047667     2.410
   1.11196  0.05776 -0.03093 -1.00816  0.003108  0.001275  0.042532     2.438
   1.12207  0.06768 -0.03288 -1.02067  0.003442  0.001399  0.038022     2.459
   1.13350  0.07895 -0.03481 -1.03215  0.003752  0.001525  0.035244     2.460
   1.14613  0.09144 -0.03664 -1.04200  0.004088  0.001656  0.032375     2.468
   1.15994  0.10515 -0.03835 -1.04901  0.004477  0.001798  0.029101     2.490
   1.17469  0.11981 -0.03996 -1.05613  0.004792  0.001930  0.027587     2.482
   1.18993  0.13498 -0.04141 -1.06318  0.005084  0.002054  0.026367     2.475
   1.20552  0.15051 -0.04267 -1.06924  0.005393  0.002176  0.024921     2.478
   1.22143  0.16639 -0.04375 -1.07460  0.005692  0.002294  0.023663     2.481
   1.23764  0.18258 -0.04467 -1.07906  0.005997  0.002411  0.022404     2.487
   1.25400  0.19892 -0.04546 -1.08347  0.006262  0.002520  0.021597     2.485
   1.27036  0.21526 -0.04609 -1.08790  0.006498  0.002621  0.021022     2.479
   1.28677  0.23166 -0.04656 -1.09144  0.006770  0.002724  0.020120     2.485
   1.30335  0.24824 -0.04689 -1.09453  0.007037  0.002826  0.019304     2.490
   1.32002  0.26491 -0.04711 -1.09775  0.007265  0.002920  0.018805     2.488
   1.33663  0.28153 -0.04721 -1.10073  0.007491  0.003012  0.018299     2.487
   1.35321  0.29810 -0.04717 -1.10326  0.007729  0.003103  0.017706     2.491
   1.36986  0.31475 -0.04699 -1.10540  0.007973  0.003194  0.017103     2.496
   1.38656  0.33145 -0.04670 -1.10738  0.008206  0.003283  0.016589     2.499
   1.40323  0.34811 -0.04629 -1.10905  0.008443  0.003371  0.016063     2.504
   1.41985  0.36473 -0.04576 -1.11043  0.008681  0.003459  0.015551     2.510
   1.43647  0.38133 -0.04510 -1.11135  0.008939  0.003549  0.014965     2.519
   1.45309  0.39793 -0.04431 -1.11178  0.009217  0.003641  0.014321     2.532
   1.46972  0.41453 -0.04339 -1.11188  0.009499  0.003734  0.013707     2.544
   1.48633  0.43111 -0.04234 -1.11147  0.009807  0.003830  0.013034     2.561
   1.50291  0.44765 -0.04116 -1.11057  0.010138  0.003929  0.012323     2.580
   1.51945  0.46414 -0.03985 -1.10913  0.010504  0.004033  0.011557     2.604
   1.53596  0.48059 -0.03840 -1.10715  0.010906  0.004142  0.010746     2.633
   1.55247  0.49701 -0.03680 -1.10447  0.011375  0.004258  0.009824     2.671
   1.56903  0.51348 -0.03504 -1.10120  0.011904  0.004382  0.008856     2.716
   1.58574  0.53008 -0.03313 -1.09740  0.012495  0.004513  0.007864     2.769
   1.60264  0.54687 -0.03109 -1.09324  0.013136  0.004648  0.006908     2.826
   1.61973  0.56382 -0.02896 -1.08897  0.013788  0.004784  0.006067     2.882
   1.63695  0.58089 -0.02675 -1.08464  0.014446  0.004921  0.005329     2.936
   1.65426  0.59806 -0.02449 -1.08036  0.015098  0.005055  0.004699     2.987
   1.67164  0.61529 -0.02221 -1.07619  0.015733  0.005188  0.004172     3.033
   1.68905  0.63255 -0.01994 -1.07218  0.016326  0.005317  0.003757     3.071
   1.70644  0.64979 -0.01769 -1.06834  0.016887  0.005442  0.003421     3.103
   1.72377  0.66698 -0.01547 -1.06469  0.017403  0.005564  0.003163     3.128
   1.74101  0.68409 -0.01330 -1.06122  0.017878  0.005681  0.002964     3.147
   1.75815  0.70109 -0.01119 -1.05797  0.018296  0.005794  0.002829     3.158
   1.77520  0.71802 -0.00917 -1.05493  0.018652  0.005902  0.002754     3.160
   1.79217  0.73488 -0.00723 -1.05211  0.018939  0.006005  0.002739     3.154
   1.80907  0.75168 -0.00538 -1.04951  0.019161  0.006103  0.002773     3.140
   1.82588  0.76841 -0.00365 -1.04716  0.019313  0.006196  0.002859     3.117
   1.84259  0.78504 -0.00203 -1.04509  0.019385  0.006281  0.003002     3.086
   1.85920  0.80157 -0.00054 -1.04333  0.019377  0.006358  0.003204     3.047
   1.87568  0.81800  0.00080 -1.04195  0.019276  0.006426  0.003478     3.000
   1.89204  0.83432  0.00198 -1.04102  0.019079  0.006483  0.003831     2.943
   1.90829  0.85054  0.00299 -1.04064  0.018776  0.006524  0.004281     2.878
   1.92442  0.86665  0.00381 -1.04096  0.018365  0.006549  0.004844     2.804
   1.94041  0.88262  0.00443 -1.04211  0.017849  0.006553  0.005536     2.724
   1.95619  0.89840  0.00486 -1.04431  0.017226  0.006531  0.006384     2.638
   1.97170  0.91391  0.00506 -1.04786  0.016490  0.006479  0.007431     2.545
   1.98685  0.92905  0.00502 -1.05315  0.015637  0.006389  0.008742     2.448
   2.00150  0.94370  0.00473 -1.06069  0.014666  0.006253  0.010397     2.345
   2.01546  0.95766  0.00418 -1.07106  0.013587  0.006066  0.012506     2.240
   2.02853  0.97070  0.00337 -1.08511  0.012409  0.005820  0.015243     2.132
   2.04056  0.98268  0.00230 -1.10393  0.011144  0.005509  0.018873     2.023
   2.05143  0.99347  0.00100 -1.12928  0.009798  0.005123  0.023884     1.913
   2.05803  1.00000  0.00000 -1.12871  0.010119  0.005194  0.022509     1.948
   2.05803  1.00010 -0.00002  1.12871  0.191395  0.010503  0.000000    18.223
   2.06467  1.00659 -0.00141  1.12620  0.187462  0.010973  0.000000    17.084
   2.07243  1.01423 -0.00274  1.12340  0.185788  0.011493  0.000000    16.165
   2.08150  1.02319 -0.00412  1.12010  0.184141  0.012106  0.000000    15.211
   2.09210  1.03369 -0.00557  1.11621  0.182392  0.012831  0.000000    14.215
   2.10448  1.04598 -0.00709  1.11160  0.180405  0.013693  0.000000    13.175
   2.11896  1.06037 -0.00868  1.10612  0.178066  0.014719  0.000000    12.097
   2.13587  1.07721 -0.01035  1.09960  0.175258  0.015946  0.000000    10.991
   2.15564  1.09690 -0.01208  1.09182  0.171843  0.017417  0.000000     9.866
   2.17875  1.11994 -0.01385  1.08246  0.167667  0.019197  0.000000     8.734
   2.20575  1.14688 -0.01565  1.07113  0.162540  0.021366  0.000000     7.608
   2.23731  1.17839 -0.01744  1.05738  0.156238  0.024016  0.000000     6.506
   2.27420  1.21524 -0.01916  1.04045  0.148535  0.027313  0.000000     5.438
   2.31730  1.25831 -0.02077  1.01884  0.139275  0.031585  0.000000     4.410
   2.36768  1.30867 -0.02218  0.99511  0.128114  0.036352  0.000000     3.524
   2.42656  1.36754 -0.02329  0.97427  0.115025  0.040564  0.000000     2.836
   2.49537  1.43635 -0.02398  0.95741  0.100730  0.043928  0.000000     2.293
   2.57580  1.51677 -0.02408  0.94778  0.086376  0.045781  0.000000     1.887
   2.66978  1.61076 -0.02342  0.94664  0.073436  0.045988  0.000000     1.597
   2.77963  1.72059 -0.02176  0.95220  0.062976  0.045056  0.000000     1.398
   2.90801  1.84893 -0.01882  0.96123  0.055170  0.043662  0.000000     1.264
   3.05804  1.99890 -0.01429  0.98426  0.047158  0.040462  0.000000     1.165
