#    s        x        y     Ue/Vinf    Dstar     Theta      Cf       H
   0.00000  1.00000  0.00000  1.12569  0.177681  0.005356 -0.000279    33.173
   0.00667  0.99364  0.00201  1.12561  0.174291  0.005374 -0.001174    32.434
   0.01801  0.98283  0.00544  1.12561  0.170655  0.005378 -0.001174    31.729
   0.03089  0.97055  0.00931  1.12562  0.166613  0.005383 -0.001173    30.951
   0.04491  0.95712  0.01335  1.12564  0.162388  0.005386 -0.001173    30.149
   0.05974  0.94286  0.01740  1.12568  0.158107  0.005387 -0.001174    29.347
   0.07527  0.92786  0.02141  1.12573  0.153814  0.005387 -0.001175    28.555
   0.09142  0.91220  0.02541  1.12580  0.149466  0.005384 -0.001176    27.759
   0.10802  0.89609  0.02942  1.12587  0.145039  0.005382 -0.001178    26.951
   0.12488  0.87971  0.03341  1.12595  0.140550  0.005379 -0.001180    26.130
   0.14188  0.86318  0.03738  1.12603  0.136014  0.005376 -0.001181    25.299
   0.15896  0.84656  0.04130  1.12611  0.131440  0.005374 -0.001183    24.460
   0.17607  0.82989  0.04517  1.12620  0.126839  0.005371 -0.001185    23.614
   0.19318  0.81321  0.04899  1.12628  0.122222  0.005369 -0.001187    22.765
   0.21029  0.79652  0.05273  1.12637  0.117593  0.005367 -0.001189    21.912
   0.22743  0.77978  0.05643  1.12646  0.112945  0.005364 -0.001192    21.055
   0.24453  0.76308  0.06007  1.12656  0.108277  0.005362 -0.001194    20.193
   0.26151  0.74647  0.06361  1.12666  0.103632  0.005359 -0.001197    19.336
   0.27839  0.72994  0.06704  1.12677  0.099032  0.005356 -0.001200    18.489
   0.29522  0.71344  0.07036  1.12690  0.094473  0.005352 -0.001204    17.652
   0.31203  0.69694  0.07357  1.12705  0.089960  0.005347 -0.001209    16.825
   0.32881  0.68046  0.07667  1.12722  0.085495  0.005340 -0.001214    16.010
   0.34552  0.66401  0.07965  1.12741  0.081094  0.005332 -0.001219    15.210
   0.36216  0.64761  0.08250  1.12764  0.076765  0.005322 -0.001226    14.425
   0.37877  0.63123  0.08521  1.12791  0.072524  0.005309 -0.001234    13.660
   0.39539  0.61480  0.08779  1.12824  0.068361  0.005294 -0.001244    12.914
   0.41202  0.59836  0.09025  1.12862  0.064270  0.005275 -0.001255    12.183
   0.42857  0.58198  0.09257  1.12908  0.060268  0.005254 -0.001268    11.471
   0.44503  0.56566  0.09473  1.12963  0.056385  0.005229 -0.001283    10.783
   0.46148  0.54933  0.09674  1.13030  0.052622  0.005199 -0.001301    10.121
   0.47798  0.53293  0.09860  1.13110  0.048961  0.005164 -0.001323     9.481
   0.49446  0.51655  0.10033  1.13206  0.045392  0.005124 -0.001350     8.859
   0.51082  0.50026  0.10190  1.13320  0.041959  0.005078 -0.001382     8.262
   0.52710  0.48404  0.10328  1.13458  0.038687  0.005026 -0.001420     7.697
   0.54339  0.46779  0.10449  1.13625  0.035561  0.004966 -0.001468     7.161
   0.55971  0.45151  0.10554  1.13826  0.032578  0.004898 -0.001527     6.652
   0.57600  0.43525  0.10643  1.14068  0.029721  0.004821 -0.001600     6.165
   0.59218  0.41907  0.10713  1.14359  0.027040  0.004734 -0.001680     5.712
   0.60829  0.40298  0.10765  1.14709  0.024541  0.004637 -0.001729     5.292
   0.62434  0.38693  0.10796  1.15127  0.022223  0.004530 -0.001713     4.906
   0.64042  0.37085  0.10808  1.15623  0.020079  0.004410 -0.001542     4.553
   0.65651  0.35476  0.10800  1.16203  0.018106  0.004279 -0.001127     4.231
   0.67249  0.33878  0.10774  1.16855  0.016294  0.004141 -0.000378     3.935
   0.68825  0.32303  0.10727  1.17588  0.014674  0.003992  0.000726     3.675
   0.70393  0.30737  0.10654  1.18403  0.013278  0.003834  0.002099     3.463
   0.71975  0.29158  0.10557  1.19292  0.012068  0.003667  0.003678     3.291
   0.73559  0.27578  0.10439  1.20241  0.010952  0.003494  0.005616     3.134
   0.75115  0.26028  0.10302  1.21203  0.009949  0.003321  0.007887     2.996
   0.76650  0.24502  0.10139  1.22104  0.009135  0.003156  0.010086     2.894
   0.78192  0.22972  0.09944  1.22920  0.008475  0.002999  0.012051     2.826
   0.79744  0.21436  0.09725  1.23697  0.007856  0.002844  0.014233     2.762
   0.81279  0.19920  0.09484  1.24402  0.007275  0.002693  0.016685     2.701
   0.82793  0.18429  0.09217  1.24958  0.006782  0.002552  0.018940     2.658
   0.84302  0.16950  0.08922  1.25386  0.006349  0.002416  0.021047     2.628
   0.85806  0.15481  0.08599  1.25708  0.005945  0.002283  0.023154     2.604
   0.87291  0.14036  0.08253  1.25941  0.005549  0.002150  0.025521     2.581
   0.88737  0.12638  0.07886  1.26085  0.005129  0.002016  0.028786     2.545
   0.90140  0.11290  0.07496  1.25958  0.004776  0.001891  0.031547     2.525
   0.91519  0.09977  0.07076  1.25619  0.004480  0.001772  0.033439     2.528
   0.92848  0.08721  0.06643  1.25297  0.004112  0.001643  0.037301     2.504
   0.94079  0.07568  0.06209  1.24718  0.003732  0.001518  0.042896     2.459
   0.95221  0.06515  0.05767  1.23558  0.003482  0.001415  0.045437     2.461
   0.96284  0.05550  0.05322  1.22340  0.003247  0.001312  0.047539     2.475
   0.97241  0.04692  0.04898  1.21230  0.002977  0.001204  0.051469     2.473
   0.98081  0.03952  0.04501  1.20011  0.002680  0.001097  0.058442     2.443
   0.98816  0.03319  0.04127  1.18278  0.002430  0.001005  0.065142     2.418
   0.99463  0.02777  0.03774  1.16085  0.002223  0.000924  0.070841     2.404
   1.00034  0.02313  0.03441  1.13544  0.002031  0.000850  0.077053     2.388
   1.00542  0.01915  0.03125  1.10520  0.001847  0.000783  0.084934     2.359
   1.00996  0.01574  0.02825  1.06844  0.001714  0.000727  0.088631     2.356
   1.01405  0.01281  0.02541  1.02861  0.001572  0.000673  0.094844     2.337
   1.01775  0.01030  0.02269  0.98170  0.001448  0.000625  0.100188     2.316
   1.02112  0.00816  0.02007  0.92752  0.001347  0.000585  0.102900     2.304
   1.02423  0.00634  0.01756  0.86705  0.001256  0.000549  0.104483     2.290
   1.02710  0.00481  0.01513  0.80099  0.001182  0.000516  0.102499     2.291
   1.02975  0.00353  0.01281  0.72743  0.001093  0.000487  0.104769     2.247
   1.03221  0.00250  0.01057  0.64680  0.001071  0.000469  0.092000     2.283
   1.03452  0.00166  0.00842  0.56627  0.000987  0.000440  0.090538     2.245
   1.03670  0.00100  0.00634  0.47347  0.000958  0.000427  0.078180     2.243
   1.03878  0.00049  0.00433  0.37924  0.000925  0.000411  0.064492     2.248
   1.04077  0.00014  0.00237  0.28203  0.000855  0.000377  0.051118     2.265
   1.04268 -0.00001  0.00047  0.16526  0.000750  0.000336  0.035115     2.234
   1.04452  0.00009 -0.00138  0.02051  0.000704  0.000316  0.004663     2.230
   1.04638  0.00049 -0.00318 -0.13686  0.000704  0.000316  0.031104     2.230
   1.04830  0.00119 -0.00498 -0.27732  0.000784  0.000347  0.055259     2.256
   1.05035  0.00220 -0.00676 -0.40529  0.000821  0.000368  0.078678     2.233
   1.05254  0.00351 -0.00851 -0.51730  0.000911  0.000400  0.086974     2.278
   1.05487  0.00512 -0.01021 -0.60814  0.001005  0.000441  0.092465     2.280
   1.05738  0.00701 -0.01184 -0.68226  0.001124  0.000488  0.090548     2.306
   1.06008  0.00920 -0.01343 -0.73781  0.001277  0.000546  0.083592     2.338
   1.06301  0.01168 -0.01499 -0.78081  0.001433  0.000609  0.077793     2.352
   1.06622  0.01448 -0.01656 -0.81928  0.001566  0.000667  0.075112     2.346
   1.06978  0.01766 -0.01815 -0.85160  0.001737  0.000733  0.068760     2.370
   1.07377  0.02129 -0.01981 -0.88068  0.001893  0.000798  0.065208     2.371
   1.07825  0.02543 -0.02154 -0.90891  0.002043  0.000863  0.062558     2.368
   1.08332  0.03017 -0.02333 -0.93661  0.002196  0.000928  0.060047     2.367
   1.08907  0.03561 -0.02519 -0.96299  0.002367  0.000997  0.056941     2.373
   1.09564  0.04190 -0.02708 -0.98674  0.002571  0.001077  0.052891     2.388
   1.10320  0.04922 -0.02900 -1.00596  0.002834  0.001172  0.047523     2.417
   1.11196  0.05776 -0.03093 -1.02070  0.003141  0.001284  0.042256     2.446
   1.12207  0.06768 -0.03288 -1.03272  0.003462  0.001407  0.038168     2.461
   1.13350  0.07895 -0.03481 -1.04327  0.003785  0.001534  0.035043     2.467
   1.14613  0.09144 -0.03664 -1.05231  0.004122  0.001666  0.032203     2.475
   1.15994  0.10515 -0.03835 -1.05851  0.004517  0.001809  0.028871     2.497
   1.17469  0.11981 -0.03996 -1.06490  0.004836  0.001942  0.027344     2.490
   1.18993  0.13498 -0.04141 -1.07115  0.005137  0.002068  0.026054     2.484
   1.20552  0.15051 -0.04267 -1.07692  0.005432  0.002188  0.024812     2.482
   1.22143  0.16639 -0.04375 -1.08173  0.005742  0.002308  0.023450     2.488
   1.23764  0.18258 -0.04467 -1.08572  0.006052  0.002426  0.022176     2.494
   1.25400  0.19892 -0.04546 -1.08982  0.006313  0.002535  0.021431     2.490
   1.27036  0.21526 -0.04609 -1.09391  0.006552  0.002637  0.020844     2.485
   1.28677  0.23166 -0.04656 -1.09709  0.006829  0.002741  0.019918     2.491
   1.30335  0.24824 -0.04689 -1.09990  0.007097  0.002843  0.019118     2.496
   1.32002  0.26491 -0.04711 -1.10282  0.007328  0.002938  0.018610     2.494
   1.33663  0.28153 -0.04721 -1.10553  0.007556  0.003030  0.018101     2.493
   1.35321  0.29810 -0.04717 -1.10778  0.007798  0.003123  0.017504     2.497
   1.36986  0.31475 -0.04699 -1.10971  0.008043  0.003214  0.016913     2.502
   1.38656  0.33145 -0.04670 -1.11142  0.008283  0.003305  0.016373     2.506
   1.40323  0.34811 -0.04629 -1.11291  0.008518  0.003393  0.015874     2.510
   1.41985  0.36473 -0.04576 -1.11401  0.008766  0.003482  0.015324     2.517
   1.43647  0.38133 -0.04510 -1.11477  0.009022  0.003572  0.014763     2.526
   1.45309  0.39793 -0.04431 -1.11502  0.009303  0.003665  0.014125     2.538
   1.46972  0.41453 -0.04339 -1.11489  0.009595  0.003759  0.013487     2.552
   1.48633  0.43111 -0.04234 -1.11431  0.009905  0.003856  0.012820     2.569
   1.50291  0.44765 -0.04116 -1.11324  0.010244  0.003957  0.012102     2.589
   1.51945  0.46414 -0.03985 -1.11165  0.010614  0.004061  0.011343     2.614
   1.53596  0.48059 -0.03840 -1.10953  0.011024  0.004171  0.010531     2.643
   1.55247  0.49701 -0.03680 -1.10670  0.011504  0.004289  0.009604     2.682
   1.56903  0.51348 -0.03504 -1.10332  0.012041  0.004413  0.008639     2.729
   1.58574  0.53008 -0.03313 -1.09943  0.012643  0.004544  0.007655     2.782
   1.60264  0.54687 -0.03109 -1.09519  0.013295  0.004680  0.006703     2.841
   1.61973  0.56382 -0.02896 -1.09085  0.013958  0.004817  0.005868     2.898
   1.63695  0.58089 -0.02675 -1.08648  0.014630  0.004954  0.005134     2.953
   1.65426  0.59806 -0.02449 -1.08214  0.015299  0.005089  0.004504     3.006
   1.67164  0.61529 -0.02221 -1.07793  0.015944  0.005222  0.003985     3.053
   1.68905  0.63255 -0.01994 -1.07389  0.016555  0.005351  0.003567     3.094
   1.70644  0.64979 -0.01769 -1.07002  0.017125  0.005476  0.003237     3.127
   1.72377  0.66698 -0.01547 -1.06633  0.017656  0.005598  0.002978     3.154
   1.74101  0.68409 -0.01330 -1.06284  0.018141  0.005716  0.002781     3.174
   1.75815  0.70109 -0.01119 -1.05955  0.018573  0.005829  0.002644     3.186
   1.77520  0.71802 -0.00917 -1.05647  0.018937  0.005938  0.002570     3.189
   1.79217  0.73488 -0.00723 -1.05360  0.019238  0.006042  0.002548     3.184
   1.80907  0.75168 -0.00538 -1.05096  0.019464  0.006141  0.002583     3.170
   1.82588  0.76841 -0.00365 -1.04855  0.019625  0.006234  0.002663     3.148
   1.84259  0.78504 -0.00203 -1.04641  0.019701  0.006320  0.002802     3.117
   1.85920  0.80157 -0.00054 -1.04457  0.019697  0.006400  0.002997     3.078
   1.87568  0.81800  0.00080 -1.04310  0.019599  0.006469  0.003263     3.030
   1.89204  0.83432  0.00198 -1.04205  0.019402  0.006528  0.003606     2.972
   1.90829  0.85054  0.00299 -1.04155  0.019098  0.006572  0.004045     2.906
   1.92442  0.86665  0.00381 -1.04171  0.018682  0.006599  0.004596     2.831
   1.94041  0.88262  0.00443 -1.04268  0.018161  0.006606  0.005272     2.749
   1.95619  0.89840  0.00486 -1.04468  0.017531  0.006587  0.006101     2.661
   1.97170  0.91391  0.00506 -1.04799  0.016786  0.006538  0.007125     2.567
   1.98685  0.92905  0.00502 -1.05301  0.015921  0.006452  0.008407     2.468
   2.00150  0.94370  0.00473 -1.06021  0.014937  0.006320  0.010024     2.364
   2.01546  0.95766  0.00418 -1.07020  0.013845  0.006136  0.012081     2.256
   2.02853  0.97070  0.00337 -1.08377  0.012652  0.005893  0.014746     2.147
   2.04056  0.98268  0.00230 -1.10196  0.011374  0.005586  0.018266     2.036
   2.05143  0.99347  0.00100 -1.12644  0.010018  0.005205  0.023092     1.925
   2.05803  1.00000  0.00000 -1.12569  0.010345  0.005277  0.021756     1.961
   2.05803  1.00010 -0.00002  1.12569  0.188026  0.010633  0.000000    17.683
   2.06467  1.00659 -0.00141  1.12319  0.184045  0.011096  0.000000    16.586
   2.07243  1.01423 -0.00275  1.12039  0.182336  0.011609  0.000000    15.706
   2.08150  1.02319 -0.00413  1.11710  0.180653  0.012213  0.000000    14.792
   2.09210  1.03369 -0.00558  1.11321  0.178866  0.012928  0.000000    13.835
   2.10448  1.04598 -0.00711  1.10860  0.176837  0.013778  0.000000    12.835
   2.11896  1.06037 -0.00872  1.10312  0.174454  0.014791  0.000000    11.795
   2.13587  1.07720 -0.01040  1.09659  0.171597  0.016002  0.000000    10.724
   2.15564  1.09689 -0.01215  1.08879  0.168132  0.017454  0.000000     9.633
   2.17875  1.11993 -0.01395  1.07940  0.163901  0.019213  0.000000     8.531
   2.20575  1.14687 -0.01579  1.06800  0.158719  0.021360  0.000000     7.431
   2.23731  1.17838 -0.01762  1.05415  0.152364  0.023988  0.000000     6.352
   2.27420  1.21522 -0.01940  1.03703  0.144619  0.027269  0.000000     5.303
   2.31730  1.25829 -0.02108  1.01505  0.135344  0.031541  0.000000     4.291
   2.36768  1.30865 -0.02259  0.99199  0.124158  0.036093  0.000000     3.440
   2.42656  1.36751 -0.02381  0.97177  0.111165  0.040093  0.000000     2.773
   2.49537  1.43632 -0.02465  0.95594  0.097099  0.043176  0.000000     2.249
   2.57580  1.51674 -0.02494  0.94728  0.083127  0.044797  0.000000     1.856
   2.66978  1.61073 -0.02450  0.94696  0.070675  0.044853  0.000000     1.576
   2.77963  1.72057 -0.02313  0.95297  0.060714  0.043877  0.000000     1.384
   2.90801  1.84892 -0.02054  0.96205  0.053336  0.042518  0.000000     1.254
   3.05804  1.99890 -0.01643  0.98416  0.045846  0.039531  0.000000     1.160
