#    s        x        y     Ue/Vinf    Dstar     Theta      Cf       H
   0.00000  1.00000  0.00000  1.13822  0.193207  0.005159 -0.000285    37.448
   0.00667  0.99364  0.00201  1.13815  0.189805  0.005176 -0.001230    36.672
   0.01801  0.98283  0.00544  1.13816  0.186069  0.005180 -0.001229    35.920
   0.03089  0.97055  0.00931  1.13817  0.181898  0.005184 -0.001229    35.087
   0.04491  0.95712  0.01335  1.13819  0.177522  0.005187 -0.001229    34.224
   0.05974  0.94286  0.01740  1.13823  0.173071  0.005188 -0.001229    33.358
   0.07527  0.92786  0.02141  1.13828  0.168594  0.005188 -0.001230    32.500
   0.09142  0.91220  0.02541  1.13834  0.164048  0.005186 -0.001231    31.635
   0.10802  0.89609  0.02942  1.13841  0.159412  0.005183 -0.001233    30.755
   0.12488  0.87971  0.03341  1.13847  0.154704  0.005181 -0.001234    29.859
   0.14188  0.86318  0.03738  1.13854  0.149942  0.005179 -0.001235    28.950
   0.15896  0.84656  0.04130  1.13861  0.145135  0.005178 -0.001237    28.030
   0.17607  0.82989  0.04517  1.13868  0.140295  0.005177 -0.001238    27.101
   0.19318  0.81321  0.04899  1.13875  0.135432  0.005176 -0.001240    26.166
   0.21029  0.79652  0.05273  1.13882  0.130551  0.005175 -0.001241    25.225
   0.22743  0.77978  0.05643  1.13889  0.125644  0.005175 -0.001243    24.278
   0.24453  0.76308  0.06007  1.13896  0.120711  0.005175 -0.001245    23.325
   0.26151  0.74647  0.06361  1.13903  0.115795  0.005175 -0.001246    22.374
   0.27839  0.72994  0.06704  1.13911  0.110919  0.005175 -0.001248    21.432
   0.29522  0.71344  0.07036  1.13919  0.106081  0.005175 -0.001251    20.500
   0.31203  0.69694  0.07357  1.13929  0.101278  0.005173 -0.001254    19.577
   0.32881  0.68046  0.07667  1.13939  0.096518  0.005171 -0.001257    18.665
   0.34552  0.66401  0.07965  1.13952  0.091814  0.005168 -0.001261    17.767
   0.36216  0.64761  0.08250  1.13966  0.087179  0.005163 -0.001265    16.885
   0.37877  0.63123  0.08521  1.13984  0.082626  0.005157 -0.001271    16.023
   0.39539  0.61480  0.08779  1.14005  0.078140  0.005148 -0.001277    15.178
   0.41202  0.59836  0.09025  1.14029  0.073718  0.005138 -0.001285    14.349
   0.42857  0.58198  0.09257  1.14059  0.069382  0.005125 -0.001294    13.539
   0.44503  0.56566  0.09473  1.14094  0.065157  0.005109 -0.001304    12.754
   0.46148  0.54933  0.09674  1.14137  0.061042  0.005089 -0.001317    11.994
   0.47798  0.53293  0.09860  1.14190  0.057017  0.005066 -0.001332    11.255
   0.49446  0.51655  0.10033  1.14253  0.053084  0.005039 -0.001350    10.536
   0.51082  0.50026  0.10190  1.14329  0.049275  0.005006 -0.001372     9.842
   0.52710  0.48404  0.10328  1.14421  0.045623  0.004969 -0.001398     9.182
   0.54339  0.46779  0.10449  1.14533  0.042110  0.004925 -0.001430     8.551
   0.55971  0.45151  0.10554  1.14670  0.038724  0.004874 -0.001469     7.945
   0.57600  0.43525  0.10643  1.14835  0.035457  0.004816 -0.001518     7.363
   0.59218  0.41907  0.10713  1.15036  0.032368  0.004749 -0.001578     6.815
   0.60829  0.40298  0.10765  1.15279  0.029446  0.004674 -0.001653     6.300
   0.62434  0.38693  0.10796  1.15575  0.026711  0.004589 -0.001741     5.821
   0.64042  0.37085  0.10808  1.15935  0.024146  0.004492 -0.001806     5.375
   0.65651  0.35476  0.10800  1.16372  0.021752  0.004383 -0.001808     4.962
   0.67249  0.33878  0.10774  1.16892  0.019527  0.004263 -0.001640     4.581
   0.68825  0.32303  0.10727  1.17497  0.017519  0.004132 -0.001197     4.239
   0.70393  0.30737  0.10654  1.18183  0.015739  0.003993 -0.000419     3.942
   0.71975  0.29158  0.10557  1.18970  0.014180  0.003842  0.000678     3.691
   0.73559  0.27578  0.10439  1.19861  0.012725  0.003677  0.002235     3.460
   0.75115  0.26028  0.10302  1.20826  0.011441  0.003506  0.004176     3.263
   0.76650  0.24502  0.10139  1.21816  0.010378  0.003334  0.006249     3.112
   0.78192  0.22972  0.09944  1.22798  0.009504  0.003165  0.008276     3.003
   0.79744  0.21436  0.09725  1.23778  0.008707  0.002996  0.010546     2.906
   0.81279  0.19920  0.09484  1.24716  0.007983  0.002830  0.013076     2.820
   0.82793  0.18429  0.09217  1.25539  0.007381  0.002675  0.015432     2.759
   0.84302  0.16950  0.08922  1.26263  0.006851  0.002526  0.017727     2.713
   0.85806  0.15481  0.08599  1.26896  0.006368  0.002379  0.020048     2.676
   0.87291  0.14036  0.08253  1.27454  0.005896  0.002234  0.022735     2.639
   0.88737  0.12638  0.07886  1.27898  0.005434  0.002092  0.025967     2.598
   0.90140  0.11290  0.07496  1.28113  0.005042  0.001959  0.028788     2.574
   0.91519  0.09977  0.07076  1.28158  0.004698  0.001830  0.031146     2.567
   0.92848  0.08721  0.06643  1.28178  0.004307  0.001695  0.034992     2.541
   0.94079  0.07568  0.06209  1.27992  0.003899  0.001564  0.040644     2.493
   0.95221  0.06515  0.05767  1.27259  0.003634  0.001456  0.043230     2.496
   0.96284  0.05550  0.05322  1.26499  0.003376  0.001347  0.045744     2.506
   0.97241  0.04692  0.04898  1.25815  0.003091  0.001235  0.049850     2.503
   0.98081  0.03952  0.04501  1.25045  0.002781  0.001125  0.056926     2.472
   0.98816  0.03319  0.04127  1.23815  0.002516  0.001029  0.064061     2.445
   0.99463  0.02777  0.03774  1.22133  0.002290  0.000945  0.070914     2.424
   1.00034  0.02313  0.03441  1.20035  0.002091  0.000869  0.077766     2.406
   1.00542  0.01915  0.03125  1.17500  0.001911  0.000801  0.085011     2.385
   1.00996  0.01574  0.02825  1.14454  0.001754  0.000740  0.091767     2.368
   1.01405  0.01281  0.02541  1.10886  0.001612  0.000686  0.098432     2.350
   1.01775  0.01030  0.02269  1.06682  0.001483  0.000638  0.105395     2.326
   1.02112  0.00816  0.02007  1.01774  0.001387  0.000597  0.107921     2.322
   1.02423  0.00634  0.01756  0.96437  0.001287  0.000558  0.111572     2.308
   1.02710  0.00481  0.01513  0.90294  0.001193  0.000523  0.115849     2.279
   1.02975  0.00353  0.01281  0.83215  0.001133  0.000500  0.113438     2.268
   1.03221  0.00250  0.01057  0.75839  0.001088  0.000478  0.107229     2.274
   1.03452  0.00166  0.00842  0.68326  0.001030  0.000453  0.102143     2.272
   1.03670  0.00100  0.00634  0.59998  0.000966  0.000431  0.098446     2.240
   1.03878  0.00049  0.00433  0.51009  0.000944  0.000416  0.083388     2.269
   1.04077  0.00014  0.00237  0.42234  0.000852  0.000371  0.074647     2.297
   1.04268 -0.00001  0.00047  0.30702  0.000727  0.000326  0.067362     2.231
   1.04452  0.00009 -0.00138  0.16016  0.000731  0.000328  0.035183     2.227
   1.04638  0.00049 -0.00318  0.01848  0.000763  0.000342  0.003872     2.230
   1.04830  0.00119 -0.00498 -0.12111  0.000763  0.000342  0.025441     2.230
   1.05035  0.00220 -0.00676 -0.26435  0.000782  0.000350  0.053738     2.235
   1.05254  0.00351 -0.00851 -0.38560  0.000891  0.000391  0.066406     2.276
   1.05487  0.00512 -0.01021 -0.48364  0.000985  0.000435  0.076189     2.265
   1.05738  0.00701 -0.01184 -0.56585  0.001099  0.000480  0.077890     2.290
   1.06008  0.00920 -0.01343 -0.62994  0.001239  0.000536  0.075298     2.314
   1.06301  0.01168 -0.01499 -0.68068  0.001389  0.000596  0.071436     2.330
   1.06622  0.01448 -0.01656 -0.72498  0.001525  0.000655  0.069420     2.329
   1.06978  0.01766 -0.01815 -0.76425  0.001674  0.000715  0.065879     2.341
   1.07377  0.02129 -0.01981 -0.79982  0.001825  0.000778  0.062948     2.346
   1.07825  0.02543 -0.02154 -0.83350  0.001973  0.000841  0.060620     2.347
   1.08332  0.03017 -0.02333 -0.86566  0.002128  0.000905  0.058174     2.350
   1.08907  0.03561 -0.02519 -0.89661  0.002290  0.000973  0.055832     2.354
   1.09564  0.04190 -0.02708 -0.92474  0.002489  0.001050  0.052139     2.370
   1.10320  0.04922 -0.02900 -0.94866  0.002734  0.001142  0.047567     2.393
   1.11196  0.05776 -0.03093 -0.96769  0.003033  0.001252  0.042501     2.422
   1.12207  0.06768 -0.03288 -0.98332  0.003351  0.001374  0.038410     2.439
   1.13350  0.07895 -0.03481 -0.99742  0.003660  0.001498  0.035558     2.443
   1.14613  0.09144 -0.03664 -1.00986  0.003983  0.001627  0.032860     2.449
   1.15994  0.10515 -0.03835 -1.01907  0.004367  0.001767  0.029557     2.471
   1.17469  0.11981 -0.03996 -1.02845  0.004665  0.001895  0.028220     2.461
   1.18993  0.13498 -0.04141 -1.03717  0.004961  0.002018  0.026834     2.458
   1.20552  0.15051 -0.04267 -1.04520  0.005246  0.002135  0.025612     2.457
   1.22143  0.16639 -0.04375 -1.05202  0.005546  0.002252  0.024235     2.463
   1.23764  0.18258 -0.04467 -1.05771  0.005850  0.002368  0.022917     2.470
   1.25400  0.19892 -0.04546 -1.06341  0.006102  0.002474  0.022181     2.466
   1.27036  0.21526 -0.04609 -1.06897  0.006333  0.002573  0.021598     2.461
   1.28677  0.23166 -0.04656 -1.07357  0.006596  0.002674  0.020699     2.467
   1.30335  0.24824 -0.04689 -1.07768  0.006853  0.002773  0.019908     2.472
   1.32002  0.26491 -0.04711 -1.08168  0.007084  0.002866  0.019336     2.471
   1.33663  0.28153 -0.04721 -1.08554  0.007298  0.002955  0.018869     2.470
   1.35321  0.29810 -0.04717 -1.08891  0.007526  0.003044  0.018300     2.472
   1.36986  0.31475 -0.04699 -1.09179  0.007764  0.003133  0.017683     2.478
   1.38656  0.33145 -0.04670 -1.09443  0.007993  0.003221  0.017147     2.482
   1.40323  0.34811 -0.04629 -1.09683  0.008216  0.003306  0.016659     2.485
   1.41985  0.36473 -0.04576 -1.09885  0.008448  0.003391  0.016138     2.491
   1.43647  0.38133 -0.04510 -1.10043  0.008691  0.003478  0.015577     2.499
   1.45309  0.39793 -0.04431 -1.10153  0.008952  0.003567  0.014963     2.510
   1.46972  0.41453 -0.04339 -1.10218  0.009225  0.003658  0.014336     2.522
   1.48633  0.43111 -0.04234 -1.10231  0.009519  0.003751  0.013661     2.537
   1.50291  0.44765 -0.04116 -1.10199  0.009830  0.003847  0.012974     2.555
   1.51945  0.46414 -0.03985 -1.10104  0.010177  0.003948  0.012209     2.577
   1.53596  0.48059 -0.03840 -1.09955  0.010555  0.004054  0.011409     2.604
   1.55247  0.49701 -0.03680 -1.09731  0.010997  0.004167  0.010492     2.639
   1.56903  0.51348 -0.03504 -1.09439  0.011501  0.004289  0.009507     2.682
   1.58574  0.53008 -0.03313 -1.09090  0.012063  0.004417  0.008500     2.731
   1.60264  0.54687 -0.03109 -1.08702  0.012666  0.004550  0.007539     2.784
   1.61973  0.56382 -0.02896 -1.08297  0.013282  0.004685  0.006685     2.835
   1.63695  0.58089 -0.02675 -1.07883  0.013906  0.004820  0.005929     2.885
   1.65426  0.59806 -0.02449 -1.07472  0.014518  0.004953  0.005292     2.931
   1.67164  0.61529 -0.02221 -1.07069  0.015110  0.005084  0.004762     2.972
   1.68905  0.63255 -0.01994 -1.06681  0.015667  0.005212  0.004336     3.006
   1.70644  0.64979 -0.01769 -1.06311  0.016185  0.005336  0.004002     3.033
   1.72377  0.66698 -0.01547 -1.05958  0.016667  0.005456  0.003738     3.055
   1.74101  0.68409 -0.01330 -1.05624  0.017103  0.005572  0.003543     3.069
   1.75815  0.70109 -0.01119 -1.05311  0.017491  0.005684  0.003407     3.077
   1.77520  0.71802 -0.00917 -1.05022  0.017813  0.005790  0.003340     3.077
   1.79217  0.73488 -0.00723 -1.04756  0.018076  0.005891  0.003328     3.069
   1.80907  0.75168 -0.00538 -1.04514  0.018273  0.005986  0.003375     3.053
   1.82588  0.76841 -0.00365 -1.04299  0.018407  0.006075  0.003471     3.030
   1.84259  0.78504 -0.00203 -1.04116  0.018464  0.006156  0.003631     2.999
   1.85920  0.80157 -0.00054 -1.03967  0.018445  0.006229  0.003852     2.961
   1.87568  0.81800  0.00080 -1.03859  0.018339  0.006292  0.004147     2.915
   1.89204  0.83432  0.00198 -1.03802  0.018142  0.006342  0.004527     2.861
   1.90829  0.85054  0.00299 -1.03805  0.017845  0.006377  0.005010     2.798
   1.92442  0.86665  0.00381 -1.03885  0.017445  0.006393  0.005613     2.729
   1.94041  0.88262  0.00443 -1.04055  0.016946  0.006388  0.006351     2.653
   1.95619  0.89840  0.00486 -1.04338  0.016346  0.006358  0.007254     2.571
   1.97170  0.91391  0.00506 -1.04766  0.015640  0.006296  0.008370     2.484
   1.98685  0.92905  0.00502 -1.05379  0.014820  0.006196  0.009767     2.392
   2.00150  0.94370  0.00473 -1.06231  0.013888  0.006052  0.011537     2.295
   2.01546  0.95766  0.00418 -1.07387  0.012852  0.005856  0.013800     2.195
   2.02853  0.97070  0.00337 -1.08937  0.011716  0.005601  0.016761     2.092
   2.04056  0.98268  0.00230 -1.11007  0.010492  0.005281  0.020737     1.987
   2.05143  0.99347  0.00100 -1.13815  0.009175  0.004883  0.026337     1.879
   2.05803  1.00000  0.00000 -1.13822  0.009473  0.004947  0.024859     1.915
   2.05803  1.00010 -0.00002  1.13822  0.202680  0.010106  0.000000    20.054
   2.06467  1.00659 -0.00140  1.13571  0.198909  0.010596  0.000000    18.772
   2.07243  1.01423 -0.00273  1.13290  0.197348  0.011140  0.000000    17.715
   2.08150  1.02320 -0.00410  1.12960  0.195820  0.011782  0.000000    16.621
   2.09210  1.03370 -0.00552  1.12571  0.194198  0.012540  0.000000    15.487
   2.10448  1.04599 -0.00701  1.12110  0.192347  0.013439  0.000000    14.312
   2.11896  1.06039 -0.00857  1.11564  0.190157  0.014510  0.000000    13.106
   2.13587  1.07722 -0.01018  1.10917  0.187510  0.015787  0.000000    11.878
   2.15564  1.09693 -0.01185  1.10147  0.184268  0.017314  0.000000    10.642
   2.17875  1.11997 -0.01353  1.09223  0.180275  0.019159  0.000000     9.409
   2.20575  1.14692 -0.01522  1.08111  0.175340  0.021398  0.000000     8.194
   2.23731  1.17844 -0.01686  1.06772  0.169228  0.024120  0.000000     7.016
   2.27420  1.21529 -0.01840  1.05139  0.161690  0.027474  0.000000     5.885
   2.31730  1.25838 -0.01977  1.03094  0.152513  0.031736  0.000000     4.806
   2.36768  1.30874 -0.02088  1.00591  0.141484  0.037063  0.000000     3.817
   2.42656  1.36762 -0.02161  0.98301  0.128211  0.042003  0.000000     3.052
   2.49537  1.43643 -0.02182  0.96332  0.113297  0.046240  0.000000     2.450
   2.57580  1.51685 -0.02134  0.95047  0.097797  0.048938  0.000000     1.998
   2.66978  1.61083 -0.01995  0.94638  0.083269  0.049754  0.000000     1.674
   2.77963  1.72064 -0.01738  0.95014  0.071079  0.049056  0.000000     1.449
   2.90801  1.84896 -0.01333  0.95882  0.061705  0.047574  0.000000     1.297
   3.05804  1.99888 -0.00742  0.98520  0.051597  0.043571  0.000000     1.184
