#    s        x        y     Ue/Vinf    Dstar     Theta      Cf       H
   0.00000  1.00000  0.00000  1.06819  0.118704  0.006226 -0.000251    19.067
   0.00667  0.99364  0.00201  1.06806  0.115362  0.006245 -0.000976    18.473
   0.01801  0.98283  0.00544  1.06807  0.112143  0.006248 -0.000977    17.949
   0.03089  0.97055  0.00931  1.06811  0.108643  0.006249 -0.000978    17.386
   0.04491  0.95712  0.01335  1.06818  0.105062  0.006247 -0.000980    16.818
   0.05974  0.94286  0.01740  1.06829  0.101506  0.006242 -0.000983    16.263
   0.07527  0.92786  0.02141  1.06844  0.098007  0.006233 -0.000987    15.725
   0.09142  0.91220  0.02541  1.06862  0.094517  0.006221 -0.000991    15.193
   0.10802  0.89609  0.02942  1.06883  0.091001  0.006207 -0.000995    14.660
   0.12488  0.87971  0.03341  1.06907  0.087467  0.006192 -0.001001    14.125
   0.14188  0.86318  0.03738  1.06934  0.083927  0.006176 -0.001006    13.590
   0.15896  0.84656  0.04130  1.06963  0.080385  0.006157 -0.001013    13.055
   0.17607  0.82989  0.04517  1.06995  0.076850  0.006138 -0.001020    12.521
   0.19318  0.81321  0.04899  1.07031  0.073331  0.006116 -0.001028    11.990
   0.21029  0.79652  0.05273  1.07071  0.069832  0.006092 -0.001037    11.462
   0.22743  0.77978  0.05643  1.07116  0.066349  0.006067 -0.001047    10.937
   0.24453  0.76308  0.06007  1.07166  0.062878  0.006038 -0.001059    10.413
   0.26151  0.74647  0.06361  1.07222  0.059455  0.006008 -0.001072     9.897
   0.27839  0.72994  0.06704  1.07287  0.056108  0.005974 -0.001087     9.393
   0.29522  0.71344  0.07036  1.07361  0.052835  0.005936 -0.001104     8.901
   0.31203  0.69694  0.07357  1.07447  0.049637  0.005893 -0.001124     8.422
   0.32881  0.68046  0.07667  1.07546  0.046524  0.005847 -0.001148     7.957
   0.34552  0.66401  0.07965  1.07660  0.043503  0.005795 -0.001176     7.507
   0.36216  0.64761  0.08250  1.07793  0.040587  0.005738 -0.001210     7.074
   0.37877  0.63123  0.08521  1.07947  0.037794  0.005674 -0.001249     6.661
   0.39539  0.61480  0.08779  1.08127  0.035114  0.005603 -0.001296     6.267
   0.41202  0.59836  0.09025  1.08337  0.032537  0.005526 -0.001349     5.888
   0.42857  0.58198  0.09257  1.08580  0.030081  0.005441 -0.001397     5.529
   0.44503  0.56566  0.09473  1.08863  0.027769  0.005347 -0.001418     5.193
   0.46148  0.54933  0.09674  1.09190  0.025605  0.005245 -0.001396     4.882
   0.47798  0.53293  0.09860  1.09567  0.023579  0.005134 -0.001286     4.593
   0.49446  0.51655  0.10033  1.09996  0.021662  0.005014 -0.001042     4.320
   0.51082  0.50026  0.10190  1.10468  0.019888  0.004888 -0.000628     4.068
   0.52710  0.48404  0.10328  1.10989  0.018286  0.004756 -0.000043     3.845
   0.54339  0.46779  0.10449  1.11566  0.016830  0.004614  0.000716     3.648
   0.55971  0.45151  0.10554  1.12199  0.015504  0.004464  0.001647     3.473
   0.57600  0.43525  0.10643  1.12882  0.014277  0.004306  0.002777     3.315
   0.59218  0.41907  0.10713  1.13591  0.013195  0.004146  0.004018     3.183
   0.60829  0.40298  0.10765  1.14315  0.012220  0.003985  0.005392     3.067
   0.62434  0.38693  0.10796  1.15028  0.011366  0.003826  0.006810     2.971
   0.64042  0.37085  0.10808  1.15719  0.010606  0.003670  0.008282     2.890
   0.65651  0.35476  0.10800  1.16380  0.009911  0.003516  0.009849     2.819
   0.67249  0.33878  0.10774  1.16998  0.009261  0.003366  0.011580     2.751
   0.68825  0.32303  0.10727  1.17535  0.008679  0.003224  0.013360     2.692
   0.70393  0.30737  0.10654  1.17952  0.008192  0.003092  0.014944     2.650
   0.71975  0.29158  0.10557  1.18265  0.007768  0.002966  0.016379     2.619
   0.73559  0.27578  0.10439  1.18528  0.007333  0.002838  0.018125     2.583
   0.75115  0.26028  0.10302  1.18705  0.006895  0.002714  0.020233     2.541
   0.76650  0.24502  0.10139  1.18681  0.006536  0.002601  0.022003     2.513
   0.78192  0.22972  0.09944  1.18460  0.006254  0.002498  0.023193     2.503
   0.79744  0.21436  0.09725  1.18181  0.005951  0.002392  0.024717     2.488
   0.81279  0.19920  0.09484  1.17804  0.005631  0.002284  0.026655     2.466
   0.82793  0.18429  0.09217  1.17222  0.005352  0.002182  0.028295     2.452
   0.84302  0.16950  0.08922  1.16464  0.005099  0.002084  0.029670     2.447
   0.85806  0.15481  0.08599  1.15582  0.004845  0.001983  0.031097     2.444
   0.87291  0.14036  0.08253  1.14593  0.004566  0.001876  0.033067     2.433
   0.88737  0.12638  0.07886  1.13417  0.004259  0.001768  0.035942     2.409
   0.90140  0.11290  0.07496  1.11844  0.004012  0.001669  0.037857     2.403
   0.91519  0.09977  0.07076  1.10028  0.003787  0.001570  0.039140     2.411
   0.92848  0.08721  0.06643  1.08120  0.003502  0.001460  0.042144     2.398
   0.94079  0.07568  0.06209  1.05824  0.003197  0.001353  0.046794     2.362
   0.95221  0.06515  0.05767  1.02818  0.002986  0.001267  0.048905     2.358
   0.96284  0.05550  0.05322  0.99576  0.002800  0.001181  0.049890     2.370
   0.97241  0.04692  0.04898  0.96412  0.002587  0.001088  0.051907     2.378
   0.98081  0.03952  0.04501  0.93096  0.002332  0.000992  0.057082     2.351
   0.98816  0.03319  0.04127  0.89111  0.002132  0.000912  0.060584     2.337
   0.99463  0.02777  0.03774  0.84640  0.001953  0.000841  0.063747     2.321
   1.00034  0.02313  0.03441  0.79667  0.001801  0.000779  0.065632     2.312
   1.00542  0.01915  0.03125  0.74257  0.001661  0.000722  0.067003     2.301
   1.00996  0.01574  0.02825  0.68335  0.001534  0.000670  0.067396     2.291
   1.01405  0.01281  0.02541  0.61944  0.001421  0.000620  0.065892     2.291
   1.01775  0.01030  0.02269  0.54770  0.001297  0.000575  0.066055     2.255
   1.02112  0.00816  0.02007  0.46661  0.001239  0.000548  0.058600     2.260
   1.02423  0.00634  0.01756  0.38475  0.001154  0.000509  0.051486     2.268
   1.02710  0.00481  0.01513  0.29252  0.001063  0.000478  0.044215     2.224
   1.02975  0.00353  0.01281  0.19428  0.001046  0.000465  0.029136     2.251
   1.03221  0.00250  0.01057  0.09438  0.000956  0.000429  0.015794     2.230
   1.03452  0.00166  0.00842 -0.01197  0.000956  0.000429  0.002004     2.230
   1.03670  0.00100  0.00634 -0.11879  0.000912  0.000410  0.020887     2.227
   1.03878  0.00049  0.00433 -0.25068  0.000780  0.000355  0.052802     2.199
   1.04077  0.00014  0.00237 -0.39412  0.000769  0.000343  0.081200     2.241
   1.04268 -0.00001  0.00047 -0.54289  0.000727  0.000330  0.122383     2.203
   1.04452  0.00009 -0.00138 -0.71237  0.000682  0.000309  0.170587     2.207
   1.04638  0.00049 -0.00318 -0.86983  0.000711  0.000315  0.191087     2.257
   1.04830  0.00119 -0.00498 -0.98663  0.000801  0.000347  0.183059     2.311
   1.05035  0.00220 -0.00676 -1.08369  0.000868  0.000378  0.187948     2.297
   1.05254  0.00351 -0.00851 -1.15791  0.000985  0.000419  0.168465     2.349
   1.05487  0.00512 -0.01021 -1.20706  0.001124  0.000471  0.148102     2.388
   1.05738  0.00701 -0.01184 -1.23784  0.001289  0.000530  0.126796     2.431
   1.06008  0.00920 -0.01343 -1.25348  0.001490  0.000599  0.104984     2.486
   1.06301  0.01168 -0.01499 -1.26273  0.001677  0.000670  0.092052     2.505
   1.06622  0.01448 -0.01656 -1.26755  0.001882  0.000744  0.080079     2.531
   1.06978  0.01766 -0.01815 -1.27003  0.002088  0.000820  0.071097     2.546
   1.07377  0.02129 -0.01981 -1.27145  0.002297  0.000899  0.064105     2.555
   1.07825  0.02543 -0.02154 -1.27333  0.002494  0.000978  0.059493     2.549
   1.08332  0.03017 -0.02333 -1.27541  0.002700  0.001060  0.055236     2.546
   1.08907  0.03561 -0.02519 -1.27801  0.002907  0.001144  0.051760     2.540
   1.09564  0.04190 -0.02708 -1.27880  0.003171  0.001240  0.046550     2.558
   1.10320  0.04922 -0.02900 -1.27695  0.003493  0.001349  0.040752     2.589
   1.11196  0.05776 -0.03093 -1.27205  0.003882  0.001476  0.034824     2.630
   1.12207  0.06768 -0.03288 -1.26533  0.004301  0.001616  0.030097     2.662
   1.13350  0.07895 -0.03481 -1.25831  0.004714  0.001762  0.026852     2.676
   1.14613  0.09144 -0.03664 -1.25068  0.005162  0.001915  0.023820     2.695
   1.15994  0.10515 -0.03835 -1.24222  0.005657  0.002079  0.020885     2.722
   1.17469  0.11981 -0.03996 -1.23512  0.006067  0.002234  0.019499     2.716
   1.18993  0.13498 -0.04141 -1.22898  0.006458  0.002383  0.018365     2.710
   1.20552  0.15051 -0.04267 -1.22357  0.006836  0.002526  0.017369     2.706
   1.22143  0.16639 -0.04375 -1.21840  0.007227  0.002668  0.016297     2.709
   1.23764  0.18258 -0.04467 -1.21366  0.007601  0.002805  0.015415     2.710
   1.25400  0.19892 -0.04546 -1.20955  0.007941  0.002935  0.014785     2.705
   1.27036  0.21526 -0.04609 -1.20588  0.008265  0.003059  0.014229     2.702
   1.28677  0.23166 -0.04656 -1.20229  0.008603  0.003182  0.013594     2.704
   1.30335  0.24824 -0.04689 -1.19874  0.008948  0.003303  0.012947     2.709
   1.32002  0.26491 -0.04711 -1.19551  0.009266  0.003420  0.012456     2.710
   1.33663  0.28153 -0.04721 -1.19247  0.009577  0.003533  0.012004     2.711
   1.35321  0.29810 -0.04717 -1.18935  0.009908  0.003646  0.011475     2.718
   1.36986  0.31475 -0.04699 -1.18612  0.010257  0.003759  0.010905     2.729
   1.38656  0.33145 -0.04670 -1.18289  0.010607  0.003872  0.010373     2.739
   1.40323  0.34811 -0.04629 -1.17961  0.010964  0.003984  0.009845     2.752
   1.41985  0.36473 -0.04576 -1.17620  0.011344  0.004097  0.009283     2.769
   1.43647  0.38133 -0.04510 -1.17259  0.011757  0.004212  0.008675     2.791
   1.45309  0.39793 -0.04431 -1.16877  0.012204  0.004329  0.008029     2.819
   1.46972  0.41453 -0.04339 -1.16472  0.012694  0.004450  0.007345     2.853
   1.48633  0.43111 -0.04234 -1.16050  0.013219  0.004573  0.006659     2.891
   1.50291  0.44765 -0.04116 -1.15607  0.013802  0.004699  0.005934     2.937
   1.51945  0.46414 -0.03985 -1.15147  0.014447  0.004827  0.005187     2.993
   1.53596  0.48059 -0.03840 -1.14673  0.015163  0.004959  0.004425     3.058
   1.55247  0.49701 -0.03680 -1.14187  0.015977  0.005093  0.003637     3.137
   1.56903  0.51348 -0.03504 -1.13699  0.016885  0.005228  0.002860     3.230
   1.58574  0.53008 -0.03313 -1.13214  0.017899  0.005364  0.002109     3.337
   1.60264  0.54687 -0.03109 -1.12746  0.018979  0.005497  0.001443     3.453
   1.61973  0.56382 -0.02896 -1.12300  0.020104  0.005626  0.000877     3.573
   1.63695  0.58089 -0.02675 -1.11879  0.021256  0.005751  0.000410     3.696
   1.65426  0.59806 -0.02449 -1.11483  0.022418  0.005871  0.000036     3.819
   1.67164  0.61529 -0.02221 -1.11111  0.023561  0.005987 -0.000250     3.936
   1.68905  0.63255 -0.01994 -1.10760  0.024672  0.006098 -0.000464     4.046
   1.70644  0.64979 -0.01769 -1.10429  0.025734  0.006207 -0.000620     4.146
   1.72377  0.66698 -0.01547 -1.10116  0.026749  0.006312 -0.000733     4.238
   1.74101  0.68409 -0.01330 -1.09818  0.027701  0.006415 -0.000811     4.318
   1.75815  0.70109 -0.01119 -1.09535  0.028575  0.006515 -0.000862     4.386
   1.77520  0.71802 -0.00917 -1.09265  0.029360  0.006612 -0.000893     4.440
   1.79217  0.73488 -0.00723 -1.09007  0.030053  0.006708 -0.000908     4.480
   1.80907  0.75168 -0.00538 -1.08758  0.030643  0.006801 -0.000911     4.505
   1.82588  0.76841 -0.00365 -1.08518  0.031131  0.006893 -0.000904     4.516
   1.84259  0.78504 -0.00203 -1.08286  0.031496  0.006984 -0.000886     4.510
   1.85920  0.80157 -0.00054 -1.08059  0.031740  0.007073 -0.000858     4.487
   1.87568  0.81800  0.00080 -1.07839  0.031843  0.007161 -0.000818     4.447
   1.89204  0.83432  0.00198 -1.07623  0.031799  0.007248 -0.000762     4.387
   1.90829  0.85054  0.00299 -1.07412  0.031596  0.007334 -0.000684     4.308
   1.92442  0.86665  0.00381 -1.07203  0.031227  0.007419 -0.000576     4.209
   1.94041  0.88262  0.00443 -1.07000  0.030696  0.007503 -0.000427     4.091
   1.95619  0.89840  0.00486 -1.06804  0.029995  0.007584 -0.000221     3.955
   1.97170  0.91391  0.00506 -1.06623  0.029119  0.007659  0.000061     3.802
   1.98685  0.92905  0.00502 -1.06470  0.028066  0.007724  0.000445     3.633
   2.00150  0.94370  0.00473 -1.06364  0.026844  0.007771  0.000959     3.454
   2.01546  0.95766  0.00418 -1.06331  0.025475  0.007792  0.001629     3.269
   2.02853  0.97070  0.00337 -1.06401  0.023990  0.007778  0.002480     3.084
   2.04056  0.98268  0.00230 -1.06602  0.022439  0.007720  0.003523     2.906
   2.05143  0.99347  0.00100 -1.06945  0.020899  0.007621  0.004743     2.742
   2.05803  1.00000  0.00000 -1.06819  0.021307  0.007677  0.004453     2.775
   2.05803  1.00010 -0.00002  1.06819  0.140011  0.013903  0.000000    10.071
   2.06467  1.00659 -0.00142  1.06572  0.135123  0.014287  0.000000     9.458
   2.07243  1.01422 -0.00281  1.06302  0.132782  0.014700  0.000000     9.033
   2.08150  1.02317 -0.00427  1.05983  0.130448  0.015185  0.000000     8.590
   2.09210  1.03365 -0.00584  1.05603  0.127983  0.015761  0.000000     8.120
   2.10448  1.04592 -0.00754  1.05148  0.125245  0.016447  0.000000     7.615
   2.11896  1.06028 -0.00937  1.04599  0.122121  0.017272  0.000000     7.071
   2.13587  1.07708 -0.01136  1.03932  0.118505  0.018268  0.000000     6.487
   2.15564  1.09673 -0.01351  1.03116  0.114281  0.019485  0.000000     5.865
   2.17875  1.11972 -0.01584  1.02088  0.109341  0.021012  0.000000     5.204
   2.20575  1.14660 -0.01835  1.00782  0.103576  0.022952  0.000000     4.513
   2.23731  1.17805 -0.02104  0.99240  0.096841  0.025244  0.000000     3.836
   2.27420  1.21482 -0.02393  0.97776  0.088984  0.027410  0.000000     3.246
   2.31730  1.25782 -0.02702  0.96445  0.080192  0.029350  0.000000     2.732
   2.36768  1.30809 -0.03030  0.95409  0.070821  0.030816  0.000000     2.298
   2.42656  1.36687 -0.03376  0.94838  0.061476  0.031588  0.000000     1.946
   2.49537  1.43558 -0.03740  0.94823  0.052913  0.031607  0.000000     1.674
   2.57580  1.51591 -0.04119  0.95290  0.045757  0.031057  0.000000     1.473
   2.66978  1.60982 -0.04510  0.96028  0.040244  0.030253  0.000000     1.330
   2.77963  1.71959 -0.04912  0.96815  0.036217  0.029454  0.000000     1.230
   2.90801  1.84791 -0.05318  0.97525  0.033350  0.028775  0.000000     1.159
   3.05804  1.99789 -0.05724  0.98641  0.030756  0.027768  0.000000     1.108
