#    s        x        y     Ue/Vinf    Dstar     Theta      Cf       H
   0.00000  1.00000  0.00000  1.15443  0.215836  0.004893 -0.000293    44.107
   0.00667  0.99364  0.00201  1.15437  0.212422  0.004908 -0.001311    43.279
   0.01801  0.98283  0.00544  1.15439  0.208546  0.004911 -0.001311    42.464
   0.03089  0.97055  0.00931  1.15440  0.204192  0.004914 -0.001311    41.553
   0.04491  0.95712  0.01335  1.15443  0.199602  0.004916 -0.001311    40.604
   0.05974  0.94286  0.01740  1.15447  0.194911  0.004916 -0.001311    39.647
   0.07527  0.92786  0.02141  1.15452  0.190174  0.004915 -0.001312    38.695
   0.09142  0.91220  0.02541  1.15458  0.185350  0.004912 -0.001314    37.733
   0.10802  0.89609  0.02942  1.15465  0.180422  0.004910 -0.001315    36.749
   0.12488  0.87971  0.03341  1.15471  0.175410  0.004907 -0.001316    35.746
   0.14188  0.86318  0.03738  1.15478  0.170334  0.004905 -0.001318    34.724
   0.15896  0.84656  0.04130  1.15484  0.165202  0.004904 -0.001319    33.686
   0.17607  0.82989  0.04517  1.15490  0.160031  0.004903 -0.001320    32.636
   0.19318  0.81321  0.04899  1.15496  0.154829  0.004904 -0.001321    31.575
   0.21029  0.79652  0.05273  1.15502  0.149599  0.004904 -0.001322    30.505
   0.22743  0.77978  0.05643  1.15507  0.144336  0.004905 -0.001323    29.425
   0.24453  0.76308  0.06007  1.15512  0.139040  0.004907 -0.001324    28.335
   0.26151  0.74647  0.06361  1.15517  0.133754  0.004909 -0.001324    27.245
   0.27839  0.72994  0.06704  1.15522  0.128501  0.004912 -0.001325    26.163
   0.29522  0.71344  0.07036  1.15527  0.123278  0.004914 -0.001326    25.088
   0.31203  0.69694  0.07357  1.15533  0.118082  0.004916 -0.001328    24.020
   0.32881  0.68046  0.07667  1.15539  0.112923  0.004918 -0.001329    22.963
   0.34552  0.66401  0.07965  1.15546  0.107808  0.004919 -0.001331    21.917
   0.36216  0.64761  0.08250  1.15554  0.102758  0.004919 -0.001334    20.888
   0.37877  0.63123  0.08521  1.15563  0.097777  0.004919 -0.001336    19.878
   0.39539  0.61480  0.08779  1.15574  0.092859  0.004917 -0.001340    18.885
   0.41202  0.59836  0.09025  1.15587  0.087993  0.004914 -0.001344    17.907
   0.42857  0.58198  0.09257  1.15603  0.083198  0.004909 -0.001349    16.946
   0.44503  0.56566  0.09473  1.15622  0.078515  0.004903 -0.001356    16.014
   0.46148  0.54933  0.09674  1.15645  0.073929  0.004894 -0.001363    15.106
   0.47798  0.53293  0.09860  1.15673  0.069421  0.004882 -0.001372    14.218
   0.49446  0.51655  0.10033  1.15708  0.064991  0.004868 -0.001383    13.350
   0.51082  0.50026  0.10190  1.15749  0.060682  0.004851 -0.001396    12.510
   0.52710  0.48404  0.10328  1.15800  0.056514  0.004829 -0.001412    11.703
   0.54339  0.46779  0.10449  1.15863  0.052479  0.004803 -0.001431    10.927
   0.55971  0.45151  0.10554  1.15941  0.048553  0.004771 -0.001454    10.176
   0.57600  0.43525  0.10643  1.16035  0.044738  0.004735 -0.001481     9.449
   0.59218  0.41907  0.10713  1.16151  0.041089  0.004691 -0.001516     8.758
   0.60829  0.40298  0.10765  1.16293  0.037601  0.004641 -0.001558     8.102
   0.62434  0.38693  0.10796  1.16467  0.034291  0.004583 -0.001611     7.482
   0.64042  0.37085  0.10808  1.16682  0.031139  0.004515 -0.001677     6.896
   0.65651  0.35476  0.10800  1.16948  0.028145  0.004438 -0.001762     6.342
   0.67249  0.33878  0.10774  1.17273  0.025332  0.004350 -0.001863     5.824
   0.68825  0.32303  0.10727  1.17668  0.022726  0.004251 -0.001936     5.346
   0.70393  0.30737  0.10654  1.18151  0.020362  0.004140 -0.001928     4.919
   0.71975  0.29158  0.10557  1.18740  0.018230  0.004014 -0.001728     4.542
   0.73559  0.27578  0.10439  1.19435  0.016234  0.003875 -0.001181     4.189
   0.75115  0.26028  0.10302  1.20223  0.014430  0.003729 -0.000167     3.870
   0.76650  0.24502  0.10139  1.21113  0.012903  0.003571  0.001227     3.613
   0.78192  0.22972  0.09944  1.22111  0.011599  0.003403  0.002916     3.408
   0.79744  0.21436  0.09725  1.23199  0.010441  0.003227  0.004952     3.236
   0.81279  0.19920  0.09484  1.24335  0.009408  0.003048  0.007360     3.087
   0.82793  0.18429  0.09217  1.25451  0.008551  0.002873  0.009801     2.976
   0.84302  0.16950  0.08922  1.26533  0.007813  0.002703  0.012291     2.891
   0.85806  0.15481  0.08599  1.27572  0.007152  0.002536  0.014927     2.820
   0.87291  0.14036  0.08253  1.28545  0.006549  0.002373  0.017782     2.760
   0.88737  0.12638  0.07886  1.29442  0.005967  0.002213  0.021287     2.697
   0.90140  0.11290  0.07496  1.30124  0.005496  0.002065  0.024265     2.661
   0.91519  0.09977  0.07076  1.30672  0.005080  0.001923  0.026952     2.642
   0.92848  0.08721  0.06643  1.31195  0.004630  0.001776  0.030942     2.607
   0.94079  0.07568  0.06209  1.31539  0.004180  0.001636  0.036418     2.555
   0.95221  0.06515  0.05767  1.31428  0.003869  0.001517  0.039490     2.551
   0.96284  0.05550  0.05322  1.31256  0.003587  0.001400  0.042017     2.562
   0.97241  0.04692  0.04898  1.31195  0.003262  0.001279  0.046859     2.549
   0.98081  0.03952  0.04501  1.30997  0.002925  0.001164  0.054338     2.512
   0.98816  0.03319  0.04127  1.30357  0.002644  0.001064  0.061584     2.485
   0.99463  0.02777  0.03774  1.29328  0.002393  0.000975  0.069614     2.455
   1.00034  0.02313  0.03441  1.27827  0.002179  0.000896  0.077439     2.432
   1.00542  0.01915  0.03125  1.25887  0.001997  0.000827  0.084558     2.416
   1.00996  0.01574  0.02825  1.23561  0.001825  0.000762  0.092902     2.393
   1.01405  0.01281  0.02541  1.20686  0.001674  0.000705  0.100957     2.373
   1.01775  0.01030  0.02269  1.17207  0.001537  0.000655  0.109305     2.348
   1.02112  0.00816  0.02007  1.13011  0.001426  0.000611  0.115464     2.332
   1.02423  0.00634  0.01756  1.08228  0.001331  0.000573  0.119463     2.323
   1.02710  0.00481  0.01513  1.02837  0.001233  0.000537  0.125847     2.294
   1.02975  0.00353  0.01281  0.96516  0.001164  0.000511  0.126994     2.278
   1.03221  0.00250  0.01057  0.89807  0.001119  0.000489  0.121478     2.290
   1.03452  0.00166  0.00842  0.82845  0.001046  0.000463  0.123428     2.259
   1.03670  0.00100  0.00634  0.75099  0.001015  0.000446  0.113511     2.276
   1.03878  0.00049  0.00433  0.67376  0.000956  0.000419  0.107897     2.279
   1.04077  0.00014  0.00237  0.59106  0.000881  0.000384  0.101103     2.294
   1.04268 -0.00001  0.00047  0.49056  0.000781  0.000347  0.099007     2.247
   1.04452  0.00009 -0.00138  0.36411  0.000725  0.000320  0.077721     2.265
   1.04638  0.00049 -0.00318  0.20932  0.000675  0.000305  0.050385     2.213
   1.04830  0.00119 -0.00498  0.05005  0.000793  0.000356  0.010099     2.230
   1.05035  0.00220 -0.00676 -0.08710  0.000793  0.000356  0.017564     2.230
   1.05254  0.00351 -0.00851 -0.21653  0.000869  0.000387  0.039239     2.247
   1.05487  0.00512 -0.01021 -0.32316  0.000976  0.000432  0.051486     2.261
   1.05738  0.00701 -0.01184 -0.41824  0.001045  0.000465  0.062817     2.250
   1.06008  0.00920 -0.01343 -0.49208  0.001212  0.000524  0.060150     2.313
   1.06301  0.01168 -0.01499 -0.55329  0.001322  0.000578  0.063618     2.286
   1.06622  0.01448 -0.01656 -0.60740  0.001465  0.000634  0.061588     2.310
   1.06978  0.01766 -0.01815 -0.65495  0.001601  0.000692  0.060582     2.314
   1.07377  0.02129 -0.01981 -0.69690  0.001761  0.000756  0.057685     2.330
   1.07825  0.02543 -0.02154 -0.73568  0.001911  0.000820  0.056122     2.330
   1.08332  0.03017 -0.02333 -0.77537  0.002032  0.000877  0.056321     2.317
   1.08907  0.03561 -0.02519 -0.81248  0.002203  0.000943  0.053508     2.335
   1.09564  0.04190 -0.02708 -0.84543  0.002404  0.001021  0.050129     2.354
   1.10320  0.04922 -0.02900 -0.87464  0.002632  0.001111  0.046617     2.370
   1.11196  0.05776 -0.03093 -0.89898  0.002917  0.001218  0.042136     2.396
   1.12207  0.06768 -0.03288 -0.91964  0.003221  0.001336  0.038445     2.411
   1.13350  0.07895 -0.03481 -0.93858  0.003514  0.001456  0.035902     2.413
   1.14613  0.09144 -0.03664 -0.95536  0.003827  0.001581  0.033304     2.421
   1.15994  0.10515 -0.03835 -0.96866  0.004190  0.001717  0.030223     2.440
   1.17469  0.11981 -0.03996 -0.98160  0.004478  0.001841  0.028918     2.432
   1.18993  0.13498 -0.04141 -0.99350  0.004765  0.001961  0.027550     2.430
   1.20552  0.15051 -0.04267 -1.00420  0.005045  0.002075  0.026273     2.431
   1.22143  0.16639 -0.04375 -1.01356  0.005329  0.002188  0.024987     2.436
   1.23764  0.18258 -0.04467 -1.02160  0.005617  0.002300  0.023723     2.443
   1.25400  0.19892 -0.04546 -1.02938  0.005859  0.002402  0.022996     2.439
   1.27036  0.21526 -0.04609 -1.03677  0.006086  0.002498  0.022372     2.436
   1.28677  0.23166 -0.04656 -1.04304  0.006341  0.002596  0.021467     2.442
   1.30335  0.24824 -0.04689 -1.04877  0.006584  0.002692  0.020712     2.446
   1.32002  0.26491 -0.04711 -1.05421  0.006808  0.002783  0.020123     2.446
   1.33663  0.28153 -0.04721 -1.05954  0.007007  0.002868  0.019710     2.443
   1.35321  0.29810 -0.04717 -1.06428  0.007222  0.002953  0.019158     2.446
   1.36986  0.31475 -0.04699 -1.06837  0.007453  0.003039  0.018519     2.452
   1.38656  0.33145 -0.04670 -1.07233  0.007661  0.003122  0.018051     2.454
   1.40323  0.34811 -0.04629 -1.07579  0.007880  0.003205  0.017518     2.459
   1.41985  0.36473 -0.04576 -1.07899  0.008090  0.003286  0.017057     2.462
   1.43647  0.38133 -0.04510 -1.08165  0.008318  0.003369  0.016504     2.469
   1.45309  0.39793 -0.04431 -1.08369  0.008568  0.003455  0.015868     2.480
   1.46972  0.41453 -0.04339 -1.08539  0.008815  0.003540  0.015291     2.490
   1.48633  0.43111 -0.04234 -1.08648  0.009086  0.003629  0.014638     2.503
   1.50291  0.44765 -0.04116 -1.08708  0.009370  0.003721  0.013974     2.518
   1.51945  0.46414 -0.03985 -1.08700  0.009690  0.003817  0.013220     2.538
   1.53596  0.48059 -0.03840 -1.08633  0.010036  0.003918  0.012430     2.562
   1.55247  0.49701 -0.03680 -1.08484  0.010440  0.004026  0.011521     2.593
   1.56903  0.51348 -0.03504 -1.08259  0.010903  0.004143  0.010532     2.632
   1.58574  0.53008 -0.03313 -1.07968  0.011420  0.004268  0.009510     2.676
   1.60264  0.54687 -0.03109 -1.07630  0.011974  0.004397  0.008531     2.723
   1.61973  0.56382 -0.02896 -1.07268  0.012537  0.004528  0.007661     2.769
   1.63695  0.58089 -0.02675 -1.06895  0.013100  0.004659  0.006906     2.812
   1.65426  0.59806 -0.02449 -1.06516  0.013661  0.004790  0.006248     2.852
   1.67164  0.61529 -0.02221 -1.06146  0.014192  0.004919  0.005715     2.885
   1.68905  0.63255 -0.01994 -1.05788  0.014691  0.005043  0.005287     2.913
   1.70644  0.64979 -0.01769 -1.05447  0.015154  0.005165  0.004952     2.934
   1.72377  0.66698 -0.01547 -1.05122  0.015578  0.005282  0.004692     2.949
   1.74101  0.68409 -0.01330 -1.04817  0.015966  0.005395  0.004496     2.960
   1.75815  0.70109 -0.01119 -1.04533  0.016304  0.005503  0.004367     2.963
   1.77520  0.71802 -0.00917 -1.04275  0.016585  0.005605  0.004308     2.959
   1.79217  0.73488 -0.00723 -1.04042  0.016809  0.005701  0.004310     2.948
   1.80907  0.75168 -0.00538 -1.03837  0.016974  0.005791  0.004373     2.931
   1.82588  0.76841 -0.00365 -1.03662  0.017081  0.005874  0.004488     2.908
   1.84259  0.78504 -0.00203 -1.03522  0.017119  0.005949  0.004671     2.878
   1.85920  0.80157 -0.00054 -1.03422  0.017087  0.006014  0.004920     2.841
   1.87568  0.81800  0.00080 -1.03370  0.016977  0.006068  0.005248     2.798
   1.89204  0.83432  0.00198 -1.03374  0.016783  0.006109  0.005669     2.748
   1.90829  0.85054  0.00299 -1.03448  0.016497  0.006133  0.006201     2.690
   1.92442  0.86665  0.00381 -1.03607  0.016118  0.006138  0.006862     2.626
   1.94041  0.88262  0.00443 -1.03867  0.015648  0.006121  0.007670     2.556
   1.95619  0.89840  0.00486 -1.04252  0.015085  0.006079  0.008658     2.482
   1.97170  0.91391  0.00506 -1.04795  0.014425  0.006005  0.009876     2.402
   1.98685  0.92905  0.00502 -1.05541  0.013660  0.005894  0.011408     2.317
   2.00150  0.94370  0.00473 -1.06547  0.012789  0.005739  0.013354     2.228
   2.01546  0.95766  0.00418 -1.07886  0.011818  0.005534  0.015863     2.136
   2.02853  0.97070  0.00337 -1.09662  0.010749  0.005270  0.019183     2.040
   2.04056  0.98268  0.00230 -1.12027  0.009587  0.004940  0.023716     1.941
   2.05143  0.99347  0.00100 -1.15273  0.008317  0.004528  0.030325     1.837
   2.05803  1.00000  0.00000 -1.15443  0.008561  0.004576  0.028795     1.871
   2.05803  1.00010 -0.00002  1.15443  0.224398  0.009469  0.000000    23.697
   2.06467  1.00659 -0.00140  1.15194  0.220934  0.009994  0.000000    22.107
   2.07243  1.01424 -0.00271  1.14913  0.219582  0.010580  0.000000    20.754
   2.08150  1.02321 -0.00406  1.14585  0.218273  0.011270  0.000000    19.367
   2.09210  1.03371 -0.00545  1.14198  0.216886  0.012085  0.000000    17.946
   2.10448  1.04601 -0.00689  1.13743  0.215291  0.013050  0.000000    16.497
   2.11896  1.06041 -0.00837  1.13206  0.213381  0.014195  0.000000    15.032
   2.13587  1.07726 -0.00990  1.12571  0.211039  0.015556  0.000000    13.566
   2.15564  1.09697 -0.01144  1.11821  0.208132  0.017179  0.000000    12.115
   2.17875  1.12002 -0.01297  1.10926  0.204505  0.019133  0.000000    10.689
   2.20575  1.14699 -0.01445  1.09858  0.199960  0.021487  0.000000     9.306
   2.23731  1.17852 -0.01583  1.08583  0.194255  0.024329  0.000000     7.985
   2.27420  1.21538 -0.01704  1.07050  0.187117  0.027791  0.000000     6.733
   2.31730  1.25848 -0.01800  1.05179  0.178259  0.032084  0.000000     5.556
   2.36768  1.30885 -0.01858  1.02806  0.167481  0.037642  0.000000     4.449
   2.42656  1.36773 -0.01865  1.00156  0.154360  0.044001  0.000000     3.508
   2.49537  1.43654 -0.01803  0.97766  0.138797  0.049823  0.000000     2.786
   2.57580  1.51695 -0.01651  0.95916  0.121639  0.054308  0.000000     2.240
   2.66978  1.61090 -0.01384  0.94916  0.104380  0.056656  0.000000     1.842
   2.77963  1.72067 -0.00968  0.94854  0.088765  0.056795  0.000000     1.563
   2.90801  1.84890 -0.00367  0.95570  0.075894  0.055333  0.000000     1.372
   3.05804  1.99871  0.00463  0.98926  0.060413  0.049382  0.000000     1.223
