#    s        x        y     Ue/Vinf    Dstar     Theta      Cf       H
   0.00000  1.00000  0.00000  1.09331  0.143824  0.005835 -0.000263    24.650
   0.00667  0.99364  0.00201  1.09320  0.140468  0.005853 -0.001055    23.997
   0.01801  0.98283  0.00544  1.09320  0.137057  0.005858 -0.001055    23.395
   0.03089  0.97055  0.00931  1.09321  0.133304  0.005862 -0.001055    22.739
   0.04491  0.95712  0.01335  1.09325  0.129424  0.005864 -0.001056    22.070
   0.05974  0.94286  0.01740  1.09330  0.125529  0.005863 -0.001058    21.409
   0.07527  0.92786  0.02141  1.09339  0.121660  0.005860 -0.001060    20.761
   0.09142  0.91220  0.02541  1.09349  0.117769  0.005855 -0.001062    20.115
   0.10802  0.89609  0.02942  1.09361  0.113827  0.005848 -0.001065    19.463
   0.12488  0.87971  0.03341  1.09374  0.109847  0.005841 -0.001068    18.806
   0.14188  0.86318  0.03738  1.09388  0.105841  0.005833 -0.001071    18.144
   0.15896  0.84656  0.04130  1.09403  0.101816  0.005825 -0.001075    17.479
   0.17607  0.82989  0.04517  1.09420  0.097782  0.005816 -0.001079    16.813
   0.19318  0.81321  0.04899  1.09438  0.093749  0.005806 -0.001083    16.147
   0.21029  0.79652  0.05273  1.09457  0.089721  0.005795 -0.001088    15.481
   0.22743  0.77978  0.05643  1.09479  0.085693  0.005784 -0.001093    14.816
   0.24453  0.76308  0.06007  1.09502  0.081661  0.005771 -0.001099    14.150
   0.26151  0.74647  0.06361  1.09528  0.077666  0.005757 -0.001106    13.491
   0.27839  0.72994  0.06704  1.09558  0.073732  0.005741 -0.001114    12.843
   0.29522  0.71344  0.07036  1.09593  0.069858  0.005723 -0.001123    12.207
   0.31203  0.69694  0.07357  1.09633  0.066044  0.005702 -0.001133    11.583
   0.32881  0.68046  0.07667  1.09679  0.062297  0.005678 -0.001145    10.972
   0.34552  0.66401  0.07965  1.09733  0.058631  0.005651 -0.001159    10.376
   0.36216  0.64761  0.08250  1.09796  0.055054  0.005620 -0.001175     9.797
   0.37877  0.63123  0.08521  1.09870  0.051587  0.005584 -0.001194     9.238
   0.39539  0.61480  0.08779  1.09957  0.048215  0.005544 -0.001216     8.697
   0.41202  0.59836  0.09025  1.10060  0.044932  0.005498 -0.001242     8.172
   0.42857  0.58198  0.09257  1.10181  0.041760  0.005447 -0.001274     7.666
   0.44503  0.56566  0.09473  1.10324  0.038725  0.005390 -0.001312     7.184
   0.46148  0.54933  0.09674  1.10493  0.035825  0.005326 -0.001358     6.727
   0.47798  0.53293  0.09860  1.10693  0.033048  0.005253 -0.001413     6.291
   0.49446  0.51655  0.10033  1.10930  0.030386  0.005173 -0.001477     5.874
   0.51082  0.50026  0.10190  1.11208  0.027867  0.005085 -0.001531     5.481
   0.52710  0.48404  0.10328  1.11535  0.025536  0.004987 -0.001551     5.121
   0.54339  0.46779  0.10449  1.11919  0.023348  0.004879 -0.001500     4.786
   0.55971  0.45151  0.10554  1.12366  0.021321  0.004761 -0.001317     4.479
   0.57600  0.43525  0.10643  1.12875  0.019425  0.004634 -0.000940     4.192
   0.59218  0.41907  0.10713  1.13439  0.017697  0.004500 -0.000331     3.933
   0.60829  0.40298  0.10765  1.14069  0.016134  0.004357  0.000520     3.703
   0.62434  0.38693  0.10796  1.14766  0.014736  0.004204  0.001594     3.505
   0.64042  0.37085  0.10808  1.15523  0.013487  0.004044  0.002871     3.335
   0.65651  0.35476  0.10800  1.16327  0.012356  0.003878  0.004365     3.186
   0.67249  0.33878  0.10774  1.17152  0.011343  0.003711  0.006053     3.057
   0.68825  0.32303  0.10727  1.17967  0.010438  0.003545  0.007925     2.944
   0.70393  0.30737  0.10654  1.18724  0.009683  0.003387  0.009729     2.859
   0.71975  0.29158  0.10557  1.19416  0.009041  0.003235  0.011441     2.794
   0.73559  0.27578  0.10439  1.20069  0.008423  0.003085  0.013413     2.730
   0.75115  0.26028  0.10302  1.20653  0.007830  0.002938  0.015712     2.665
   0.76650  0.24502  0.10139  1.21061  0.007352  0.002805  0.017692     2.621
   0.78192  0.22972  0.09944  1.21312  0.006958  0.002682  0.019305     2.594
   0.79744  0.21436  0.09725  1.21480  0.006576  0.002559  0.021046     2.569
   0.81279  0.19920  0.09484  1.21571  0.006179  0.002436  0.023234     2.537
   0.82793  0.18429  0.09217  1.21466  0.005843  0.002321  0.025088     2.517
   0.84302  0.16950  0.08922  1.21206  0.005541  0.002211  0.026686     2.507
   0.85806  0.15481  0.08599  1.20848  0.005237  0.002098  0.028470     2.496
   0.87291  0.14036  0.08253  1.20378  0.004924  0.001983  0.030565     2.484
   0.88737  0.12638  0.07886  1.19780  0.004579  0.001865  0.033671     2.456
   0.90140  0.11290  0.07496  1.18829  0.004302  0.001758  0.035852     2.448
   0.91519  0.09977  0.07076  1.17676  0.004044  0.001650  0.037655     2.451
   0.92848  0.08721  0.06643  1.16440  0.003747  0.001535  0.040633     2.441
   0.94079  0.07568  0.06209  1.14959  0.003397  0.001419  0.046367     2.394
   0.95221  0.06515  0.05767  1.12731  0.003185  0.001328  0.048325     2.398
   0.96284  0.05550  0.05322  1.10427  0.002979  0.001235  0.049899     2.412
   0.97241  0.04692  0.04898  1.08209  0.002739  0.001135  0.053123     2.413
   0.98081  0.03952  0.04501  1.05830  0.002473  0.001036  0.059041     2.387
   0.98816  0.03319  0.04127  1.02876  0.002250  0.000951  0.064373     2.367
   0.99463  0.02777  0.03774  0.99424  0.002064  0.000877  0.068592     2.355
   1.00034  0.02313  0.03441  0.95609  0.001900  0.000809  0.072047     2.349
   1.00542  0.01915  0.03125  0.91321  0.001723  0.000744  0.078362     2.315
   1.00996  0.01574  0.02825  0.86258  0.001611  0.000695  0.078975     2.318
   1.01405  0.01281  0.02541  0.81024  0.001489  0.000643  0.080401     2.316
   1.01775  0.01030  0.02269  0.75052  0.001352  0.000594  0.085347     2.274
   1.02112  0.00816  0.02007  0.68012  0.001283  0.000563  0.081056     2.279
   1.02423  0.00634  0.01756  0.60707  0.001199  0.000529  0.078269     2.268
   1.02710  0.00481  0.01513  0.52826  0.001127  0.000497  0.072458     2.268
   1.02975  0.00353  0.01281  0.44170  0.001053  0.000471  0.066757     2.236
   1.03221  0.00250  0.01057  0.34979  0.001026  0.000455  0.053339     2.255
   1.03452  0.00166  0.00842  0.25594  0.000965  0.000433  0.042496     2.228
   1.03670  0.00100  0.00634  0.15642  0.000926  0.000411  0.026444     2.252
   1.03878  0.00049  0.00433  0.04275  0.000794  0.000356  0.008641     2.230
   1.04077  0.00014  0.00237 -0.09040  0.000794  0.000356  0.018211     2.230
   1.04268 -0.00001  0.00047 -0.22377  0.000767  0.000345  0.046956     2.223
   1.04452  0.00009 -0.00138 -0.37739  0.000698  0.000316  0.088382     2.206
   1.04638  0.00049 -0.00318 -0.53281  0.000717  0.000318  0.116684     2.251
   1.04830  0.00119 -0.00498 -0.66088  0.000789  0.000347  0.128445     2.275
   1.05035  0.00220 -0.00676 -0.77302  0.000850  0.000374  0.140542     2.269
   1.05254  0.00351 -0.00851 -0.86710  0.000941  0.000409  0.137974     2.302
   1.05487  0.00512 -0.01021 -0.93429  0.001075  0.000458  0.124921     2.345
   1.05738  0.00701 -0.01184 -0.98533  0.001203  0.000511  0.116607     2.356
   1.06008  0.00920 -0.01343 -1.01780  0.001396  0.000577  0.097623     2.417
   1.06301  0.01168 -0.01499 -1.04307  0.001547  0.000641  0.090595     2.413
   1.06622  0.01448 -0.01656 -1.06262  0.001729  0.000709  0.080712     2.436
   1.06978  0.01766 -0.01815 -1.07884  0.001905  0.000779  0.073737     2.445
   1.07377  0.02129 -0.01981 -1.09271  0.002091  0.000852  0.067415     2.454
   1.07825  0.02543 -0.02154 -1.10737  0.002250  0.000922  0.064381     2.440
   1.08332  0.03017 -0.02333 -1.12129  0.002433  0.000996  0.060088     2.443
   1.08907  0.03561 -0.02519 -1.13480  0.002620  0.001072  0.056435     2.444
   1.09564  0.04190 -0.02708 -1.14640  0.002847  0.001158  0.051699     2.458
   1.10320  0.04922 -0.02900 -1.15421  0.003139  0.001260  0.045658     2.490
   1.11196  0.05776 -0.03093 -1.15878  0.003470  0.001377  0.040158     2.520
   1.12207  0.06768 -0.03288 -1.16020  0.003854  0.001510  0.034971     2.552
   1.13350  0.07895 -0.03481 -1.16143  0.004200  0.001645  0.032038     2.554
   1.14613  0.09144 -0.03664 -1.16103  0.004602  0.001789  0.028640     2.572
   1.15994  0.10515 -0.03835 -1.15939  0.005026  0.001940  0.025664     2.590
   1.17469  0.11981 -0.03996 -1.15863  0.005379  0.002083  0.024172     2.582
   1.18993  0.13498 -0.04141 -1.15832  0.005717  0.002219  0.022902     2.576
   1.20552  0.15051 -0.04267 -1.15815  0.006048  0.002350  0.021713     2.573
   1.22143  0.16639 -0.04375 -1.15747  0.006403  0.002482  0.020337     2.580
   1.23764  0.18258 -0.04467 -1.15699  0.006725  0.002607  0.019360     2.580
   1.25400  0.19892 -0.04546 -1.15665  0.007029  0.002726  0.018552     2.578
   1.27036  0.21526 -0.04609 -1.15673  0.007295  0.002837  0.018013     2.572
   1.28677  0.23166 -0.04656 -1.15641  0.007594  0.002949  0.017226     2.575
   1.30335  0.24824 -0.04689 -1.15594  0.007891  0.003059  0.016493     2.580
   1.32002  0.26491 -0.04711 -1.15563  0.008161  0.003164  0.015948     2.579
   1.33663  0.28153 -0.04721 -1.15540  0.008418  0.003265  0.015474     2.578
   1.35321  0.29810 -0.04717 -1.15491  0.008691  0.003365  0.014914     2.582
   1.36986  0.31475 -0.04699 -1.15417  0.008977  0.003467  0.014312     2.590
   1.38656  0.33145 -0.04670 -1.15332  0.009260  0.003567  0.013760     2.596
   1.40323  0.34811 -0.04629 -1.15235  0.009541  0.003665  0.013239     2.603
   1.41985  0.36473 -0.04576 -1.15118  0.009831  0.003764  0.012706     2.612
   1.43647  0.38133 -0.04510 -1.14966  0.010148  0.003865  0.012099     2.626
   1.45309  0.39793 -0.04431 -1.14776  0.010492  0.003969  0.011442     2.643
   1.46972  0.41453 -0.04339 -1.14559  0.010852  0.004075  0.010784     2.663
   1.48633  0.43111 -0.04234 -1.14304  0.011245  0.004184  0.010082     2.688
   1.50291  0.44765 -0.04116 -1.14015  0.011669  0.004296  0.009359     2.716
   1.51945  0.46414 -0.03985 -1.13685  0.012140  0.004413  0.008582     2.751
   1.53596  0.48059 -0.03840 -1.13320  0.012659  0.004534  0.007777     2.792
   1.55247  0.49701 -0.03680 -1.12910  0.013260  0.004662  0.006894     2.844
   1.56903  0.51348 -0.03504 -1.12462  0.013941  0.004795  0.005974     2.907
   1.58574  0.53008 -0.03313 -1.11990  0.014694  0.004933  0.005068     2.979
   1.60264  0.54687 -0.03109 -1.11506  0.015511  0.005073  0.004207     3.058
   1.61973  0.56382 -0.02896 -1.11027  0.016350  0.005212  0.003455     3.137
   1.63695  0.58089 -0.02675 -1.10559  0.017208  0.005350  0.002801     3.217
   1.65426  0.59806 -0.02449 -1.10106  0.018065  0.005484  0.002249     3.294
   1.67164  0.61529 -0.02221 -1.09674  0.018900  0.005615  0.001798     3.366
   1.68905  0.63255 -0.01994 -1.09262  0.019704  0.005742  0.001435     3.431
   1.70644  0.64979 -0.01769 -1.08870  0.020466  0.005865  0.001148     3.489
   1.72377  0.66698 -0.01547 -1.08498  0.021181  0.005985  0.000924     3.539
   1.74101  0.68409 -0.01330 -1.08144  0.021842  0.006101  0.000753     3.580
   1.75815  0.70109 -0.01119 -1.07807  0.022440  0.006213  0.000630     3.612
   1.77520  0.71802 -0.00917 -1.07487  0.022959  0.006322  0.000554     3.631
   1.79217  0.73488 -0.00723 -1.07182  0.023399  0.006428  0.000517     3.640
   1.80907  0.75168 -0.00538 -1.06891  0.023753  0.006532  0.000517     3.637
   1.82588  0.76841 -0.00365 -1.06614  0.024022  0.006632  0.000551     3.622
   1.84259  0.78504 -0.00203 -1.06351  0.024188  0.006728  0.000625     3.595
   1.85920  0.80157 -0.00054 -1.06104  0.024255  0.006821  0.000738     3.556
   1.87568  0.81800  0.00080 -1.05875  0.024204  0.006909  0.000900     3.503
   1.89204  0.83432  0.00198 -1.05668  0.024033  0.006991  0.001117     3.438
   1.90829  0.85054  0.00299 -1.05488  0.023729  0.007065  0.001403     3.359
   1.92442  0.86665  0.00381 -1.05344  0.023290  0.007128  0.001772     3.267
   1.94041  0.88262  0.00443 -1.05247  0.022718  0.007177  0.002234     3.166
   1.95619  0.89840  0.00486 -1.05212  0.022010  0.007207  0.002814     3.054
   1.97170  0.91391  0.00506 -1.05262  0.021162  0.007212  0.003539     2.934
   1.98685  0.92905  0.00502 -1.05427  0.020168  0.007184  0.004450     2.807
   2.00150  0.94370  0.00473 -1.05743  0.019034  0.007116  0.005595     2.675
   2.01546  0.95766  0.00418 -1.06254  0.017777  0.006998  0.007029     2.540
   2.02853  0.97070  0.00337 -1.07011  0.016414  0.006824  0.008835     2.405
   2.04056  0.98268  0.00230 -1.08069  0.014976  0.006590  0.011110     2.273
   2.05143  0.99347  0.00100 -1.09485  0.013502  0.006295  0.013979     2.145
   2.05803  1.00000  0.00000 -1.09331  0.013872  0.006369  0.013208     2.178
   2.05803  1.00010 -0.00002  1.09331  0.157696  0.012204  0.000000    12.922
   2.06467  1.00659 -0.00142  1.09088  0.153243  0.012606  0.000000    12.156
   2.07243  1.01423 -0.00278  1.08820  0.151193  0.013043  0.000000    11.592
   2.08150  1.02318 -0.00421  1.08503  0.149155  0.013558  0.000000    11.001
   2.09210  1.03367 -0.00572  1.08127  0.146996  0.014169  0.000000    10.374
   2.10448  1.04595 -0.00734  1.07678  0.144572  0.014897  0.000000     9.705
   2.11896  1.06032 -0.00907  1.07141  0.141771  0.015767  0.000000     8.991
   2.13587  1.07713 -0.01092  1.06494  0.138478  0.016814  0.000000     8.236
   2.15564  1.09681 -0.01289  1.05712  0.134564  0.018078  0.000000     7.443
   2.17875  1.11982 -0.01498  1.04755  0.129887  0.019626  0.000000     6.618
   2.20575  1.14673 -0.01718  1.03566  0.124290  0.021549  0.000000     5.768
   2.23731  1.17821 -0.01948  1.02071  0.117614  0.023975  0.000000     4.906
   2.27420  1.21501 -0.02187  1.00160  0.109750  0.027096  0.000000     4.050
   2.31730  1.25805 -0.02432  0.98314  0.100400  0.030123  0.000000     3.333
   2.36768  1.30837 -0.02678  0.96658  0.089806  0.032811  0.000000     2.737
   2.42656  1.36720 -0.02923  0.95403  0.078503  0.034797  0.000000     2.256
   2.49537  1.43597 -0.03158  0.94753  0.067372  0.035778  0.000000     1.883
   2.57580  1.51636 -0.03378  0.94786  0.057442  0.035732  0.000000     1.608
   2.66978  1.61033 -0.03570  0.95355  0.049449  0.034989  0.000000     1.413
   2.77963  1.72017 -0.03725  0.96174  0.043524  0.034002  0.000000     1.280
   2.90801  1.84854 -0.03827  0.97007  0.039327  0.033067  0.000000     1.189
   3.05804  1.99857 -0.03860  0.98479  0.035448  0.031533  0.000000     1.124
