#    s        x        y     Ue/Vinf    Dstar     Theta      Cf       H
   0.00000  1.00000  0.00000  0.88083  0.029582  0.012066  0.000299     2.452
   0.00668  0.99360  0.00192  0.88806  0.027408  0.011632  0.000374     2.356
   0.01807  0.98272  0.00530  0.89845  0.025184  0.011051  0.000452     2.279
   0.03106  0.97032  0.00914  0.91104  0.022984  0.010404  0.000543     2.209
   0.04516  0.95680  0.01317  0.92489  0.021067  0.009754  0.000630     2.160
   0.06006  0.94246  0.01720  0.93910  0.019547  0.009143  0.000695     2.138
   0.07565  0.92739  0.02118  0.95318  0.018429  0.008585  0.000722     2.147
   0.09186  0.91167  0.02516  0.96728  0.017645  0.008065  0.000706     2.188
   0.10852  0.89549  0.02915  0.98191  0.017113  0.007561  0.000648     2.263
   0.12544  0.87905  0.03313  0.99753  0.016809  0.007056  0.000548     2.382
   0.14250  0.86245  0.03708  1.01496  0.016714  0.006525  0.000411     2.562
   0.15964  0.84577  0.04099  1.03546  0.016810  0.005936  0.000275     2.832
   0.17681  0.82904  0.04484  1.06072  0.017062  0.005255  0.000105     3.247
   0.19398  0.81229  0.04864  1.09348  0.017402  0.004432 -0.000084     3.927
   0.21115  0.79553  0.05238  1.13382  0.017744  0.003499 -0.000202     5.071
   0.22833  0.77875  0.05606  1.17881  0.017971  0.002553 -0.000254     7.039
   0.24546  0.76200  0.05967  1.23446  0.017833  0.001496 -0.000325    11.918
   0.26249  0.74535  0.06319  1.22417  0.017796  0.001693 -0.000391    10.514
   0.27941  0.72877  0.06660  1.22514  0.017360  0.001678 -0.000395    10.345
   0.29629  0.71222  0.06990  1.22605  0.016744  0.001665 -0.000400    10.055
   0.31313  0.69568  0.07308  1.22693  0.016003  0.001653 -0.000405     9.679
   0.32994  0.67915  0.07616  1.22782  0.015171  0.001642 -0.000410     9.240
   0.34670  0.66266  0.07911  1.22877  0.014272  0.001630 -0.000417     8.755
   0.36339  0.64620  0.08193  1.22982  0.013336  0.001618 -0.000424     8.243
   0.38005  0.62976  0.08462  1.23102  0.012394  0.001605 -0.000434     7.724
   0.39672  0.61329  0.08718  1.23243  0.011451  0.001590 -0.000446     7.204
   0.41338  0.59681  0.08962  1.23411  0.010513  0.001573 -0.000461     6.684
   0.42997  0.58038  0.09191  1.23612  0.009592  0.001554 -0.000480     6.173
   0.44649  0.56400  0.09406  1.23859  0.008723  0.001532 -0.000503     5.693
   0.46301  0.54760  0.09605  1.24161  0.007912  0.001507 -0.000522     5.249
   0.47954  0.53117  0.09790  1.24528  0.007153  0.001479 -0.000520     4.837
   0.49603  0.51477  0.09961  1.24967  0.006444  0.001447 -0.000466     4.453
   0.51242  0.49845  0.10115  1.25474  0.005807  0.001413 -0.000322     4.111
   0.52875  0.48218  0.10252  1.26045  0.005258  0.001376 -0.000077     3.822
   0.54509  0.46588  0.10371  1.26692  0.004791  0.001335  0.000253     3.588
   0.56144  0.44957  0.10475  1.27409  0.004376  0.001292  0.000672     3.388
   0.57774  0.43329  0.10561  1.28172  0.004017  0.001247  0.001150     3.223
   0.59394  0.41711  0.10630  1.28950  0.003710  0.001201  0.001663     3.089
   0.61007  0.40098  0.10679  1.29704  0.003455  0.001157  0.002164     2.986
   0.62617  0.38489  0.10708  1.30420  0.003238  0.001114  0.002650     2.906
   0.64227  0.36879  0.10718  1.31085  0.003052  0.001073  0.003109     2.844
   0.65836  0.35270  0.10708  1.31716  0.002879  0.001033  0.003593     2.787
   0.67432  0.33674  0.10680  1.32332  0.002703  0.000993  0.004189     2.723
   0.69010  0.32097  0.10629  1.32858  0.002544  0.000954  0.004801     2.666
   0.70583  0.30526  0.10554  1.33176  0.002439  0.000921  0.005144     2.647
   0.72167  0.28945  0.10454  1.33446  0.002340  0.000889  0.005474     2.632
   0.73747  0.27369  0.10335  1.33757  0.002219  0.000854  0.006020     2.598
   0.75302  0.25820  0.10195  1.34052  0.002080  0.000818  0.006853     2.543
   0.76841  0.24291  0.10027  1.34020  0.001990  0.000788  0.007314     2.524
   0.78386  0.22758  0.09831  1.33822  0.001922  0.000761  0.007567     2.524
   0.79934  0.21226  0.09610  1.33650  0.001840  0.000732  0.007990     2.513
   0.81467  0.19713  0.09366  1.33441  0.001747  0.000701  0.008603     2.491
   0.82983  0.18221  0.09095  1.33037  0.001669  0.000673  0.009084     2.481
   0.84493  0.16741  0.08797  1.32473  0.001607  0.000646  0.009315     2.488
   0.85995  0.15275  0.08473  1.31934  0.001536  0.000617  0.009686     2.491
   0.87475  0.13836  0.08125  1.31401  0.001449  0.000585  0.010360     2.479
   0.88915  0.12444  0.07757  1.30744  0.001354  0.000552  0.011345     2.452
   0.90314  0.11101  0.07364  1.29727  0.001277  0.000522  0.012019     2.445
   0.91683  0.09797  0.06946  1.28487  0.001227  0.000495  0.011950     2.480
   0.92993  0.08560  0.06517  1.27592  0.001132  0.000460  0.013105     2.461
   0.94206  0.07425  0.06087  1.26402  0.001018  0.000425  0.015384     2.398
   0.95332  0.06387  0.05649  1.24244  0.000963  0.000400  0.015823     2.409
   0.96371  0.05444  0.05215  1.22172  0.000914  0.000374  0.015867     2.441
   0.97301  0.04611  0.04801  1.20483  0.000840  0.000344  0.017092     2.437
   0.98119  0.03891  0.04412  1.18613  0.000760  0.000315  0.019090     2.410
   0.98837  0.03273  0.04046  1.16246  0.000698  0.000291  0.020551     2.400
   0.99470  0.02743  0.03701  1.13566  0.000636  0.000267  0.022536     2.378
   1.00030  0.02288  0.03375  1.10367  0.000585  0.000247  0.024047     2.366
   1.00527  0.01898  0.03066  1.06779  0.000538  0.000229  0.025581     2.352
   1.00973  0.01561  0.02774  1.02714  0.000496  0.000212  0.027088     2.337
   1.01375  0.01272  0.02495  0.98136  0.000459  0.000197  0.028145     2.327
   1.01739  0.01024  0.02228  0.93042  0.000424  0.000183  0.029182     2.315
   1.02073  0.00811  0.01971  0.87226  0.000391  0.000170  0.030191     2.295
   1.02380  0.00630  0.01724  0.80661  0.000366  0.000160  0.029659     2.294
   1.02664  0.00476  0.01485  0.73297  0.000337  0.000150  0.030426     2.255
   1.02926  0.00350  0.01255  0.65222  0.000326  0.000142  0.026587     2.292
   1.03171  0.00246  0.01033  0.56797  0.000297  0.000133  0.027114     2.237
   1.03400  0.00163  0.00819  0.46962  0.000292  0.000130  0.022031     2.246
   1.03618  0.00098  0.00612  0.37358  0.000279  0.000124  0.018367     2.255
   1.03826  0.00048  0.00410  0.26863  0.000264  0.000119  0.013670     2.216
   1.04024  0.00015  0.00214  0.15985  0.000258  0.000114  0.007747     2.261
   1.04215  0.00001  0.00024  0.03072  0.000208  0.000093  0.000643     2.230
   1.04400  0.00012 -0.00161 -0.13392  0.000208  0.000093  0.011167     2.230
   1.04587  0.00052 -0.00343 -0.27848  0.000228  0.000101  0.018708     2.252
   1.04780  0.00123 -0.00524 -0.42168  0.000226  0.000102  0.029004     2.215
   1.04986  0.00223 -0.00703 -0.54864  0.000253  0.000110  0.030991     2.287
   1.05205  0.00354 -0.00879 -0.65639  0.000270  0.000120  0.035397     2.257
   1.05438  0.00514 -0.01048 -0.73829  0.000314  0.000135  0.031739     2.330
   1.05689  0.00705 -0.01212 -0.79575  0.000357  0.000152  0.029625     2.342
   1.05960  0.00924 -0.01371 -0.83772  0.000409  0.000172  0.026308     2.374
   1.06254  0.01171 -0.01530 -0.87030  0.000458  0.000192  0.024075     2.382
   1.06576  0.01450 -0.01689 -0.90130  0.000496  0.000210  0.023364     2.367
   1.06931  0.01766 -0.01852 -0.92720  0.000549  0.000230  0.021163     2.392
   1.07328  0.02125 -0.02021 -0.95133  0.000594  0.000249  0.020126     2.388
   1.07773  0.02534 -0.02197 -0.97588  0.000636  0.000267  0.019455     2.379
   1.08275  0.03002 -0.02380 -0.99878  0.000687  0.000288  0.018252     2.388
   1.08845  0.03539 -0.02569 -1.02054  0.000739  0.000309  0.017257     2.392
   1.09493  0.04158 -0.02763 -1.03932  0.000805  0.000334  0.015804     2.412
   1.10237  0.04875 -0.02960 -1.05343  0.000888  0.000363  0.014010     2.445
   1.11095  0.05710 -0.03158 -1.06166  0.000996  0.000400  0.011982     2.491
   1.12083  0.06678 -0.03358 -1.06677  0.001107  0.000440  0.010538     2.516
   1.13204  0.07781 -0.03556 -1.07145  0.001209  0.000481  0.009674     2.517
   1.14448  0.09010 -0.03747 -1.07473  0.001324  0.000524  0.008755     2.529
   1.15809  0.10359 -0.03926 -1.07555  0.001457  0.000570  0.007721     2.555
   1.17266  0.11806 -0.04096 -1.07690  0.001566  0.000614  0.007238     2.550
   1.18781  0.13314 -0.04249 -1.07924  0.001659  0.000654  0.006966     2.535
   1.20335  0.14862 -0.04385 -1.08094  0.001763  0.000695  0.006543     2.538
   1.21923  0.16445 -0.04503 -1.08180  0.001874  0.000735  0.006096     2.548
   1.23540  0.18059 -0.04604 -1.08178  0.001988  0.000776  0.005650     2.562
   1.25175  0.19691 -0.04691 -1.08262  0.002074  0.000812  0.005481     2.553
   1.26813  0.21328 -0.04763 -1.08324  0.002164  0.000848  0.005255     2.553
   1.28457  0.22971 -0.04819 -1.08338  0.002261  0.000883  0.004999     2.560
   1.30115  0.24629 -0.04860 -1.08251  0.002375  0.000921  0.004650     2.579
   1.31783  0.26296 -0.04890 -1.08224  0.002461  0.000954  0.004493     2.579
   1.33448  0.27961 -0.04908 -1.08199  0.002545  0.000987  0.004348     2.578
   1.35110  0.29624 -0.04912 -1.08116  0.002642  0.001021  0.004135     2.589
   1.36778  0.31291 -0.04903 -1.07989  0.002747  0.001055  0.003908     2.604
   1.38450  0.32963 -0.04882 -1.07830  0.002855  0.001090  0.003687     2.620
   1.40120  0.34633 -0.04849 -1.07657  0.002960  0.001124  0.003493     2.634
   1.41786  0.36298 -0.04803 -1.07434  0.003078  0.001159  0.003272     2.655
   1.43449  0.37961 -0.04745 -1.07134  0.003220  0.001197  0.002990     2.690
   1.45114  0.39623 -0.04673 -1.06770  0.003382  0.001237  0.002690     2.734
   1.46777  0.41285 -0.04588 -1.06332  0.003575  0.001280  0.002349     2.793
   1.48439  0.42943 -0.04489 -1.05833  0.003800  0.001326  0.001991     2.866
   1.50097  0.44597 -0.04378 -1.05262  0.004082  0.001375  0.001587     2.969
   1.51751  0.46247 -0.04253 -1.04644  0.004434  0.001427  0.001157     3.108
   1.53401  0.47892 -0.04112 -1.04008  0.004890  0.001480  0.000703     3.305
   1.55050  0.49532 -0.03957 -1.03410  0.005471  0.001531  0.000275     3.575
   1.56702  0.51176 -0.03785 -1.02897  0.006207  0.001576 -0.000078     3.940
   1.58368  0.52831 -0.03597 -1.02472  0.007095  0.001615 -0.000296     4.394
   1.60055  0.54506 -0.03395 -1.02117  0.008113  0.001650 -0.000381     4.919
   1.61761  0.56199 -0.03181 -1.01841  0.009230  0.001679 -0.000388     5.498
   1.63483  0.57906 -0.02959 -1.01627  0.010417  0.001704 -0.000370     6.115
   1.65218  0.59626 -0.02732 -1.01462  0.011647  0.001724 -0.000352     6.755
   1.66962  0.61355 -0.02500 -1.01330  0.012893  0.001742 -0.000338     7.403
   1.68712  0.63090 -0.02268 -1.01222  0.014124  0.001757 -0.000328     8.039
   1.70462  0.64824 -0.02037 -1.01131  0.015320  0.001770 -0.000320     8.653
   1.72205  0.66552 -0.01809 -1.01052  0.016460  0.001783 -0.000314     9.231
   1.73939  0.68272 -0.01585 -1.00980  0.017534  0.001795 -0.000309     9.768
   1.75663  0.69982 -0.01367 -1.00912  0.018513  0.001807 -0.000305    10.245
   1.77378  0.71684 -0.01156 -1.00846  0.019382  0.001819 -0.000301    10.653
   1.79085  0.73379 -0.00953 -1.00779  0.020124  0.001832 -0.000298    10.982
   1.80784  0.75067 -0.00760 -1.00709  0.020725  0.001847 -0.000294    11.223
   1.82474  0.76746 -0.00576 -1.00635  0.021164  0.001862 -0.000291    11.365
   1.84154  0.78418 -0.00404 -1.00555  0.021416  0.001880 -0.000288    11.394
   1.85823  0.80079 -0.00245 -1.00468  0.021451  0.001899 -0.000285    11.294
   1.87481  0.81731 -0.00100 -1.00368  0.021224  0.001922 -0.000282    11.043
   1.89126  0.83371  0.00030 -1.00252  0.020658  0.001948 -0.000280    10.602
   1.90759  0.85000  0.00143 -0.97423  0.020023  0.002666 -0.000211     7.511
   1.92381  0.86619  0.00238 -0.94424  0.019074  0.003475 -0.000177     5.488
   1.93987  0.88223  0.00314 -0.91523  0.017917  0.004299 -0.000076     4.168
   1.95573  0.89808  0.00370 -0.89146  0.016626  0.005001  0.000168     3.325
   1.97131  0.91366  0.00404 -0.87471  0.015292  0.005507  0.000475     2.777
   1.98653  0.92887  0.00415 -0.86414  0.013984  0.005829  0.000798     2.399
   2.00124  0.94358  0.00401 -0.85901  0.012745  0.005988  0.001192     2.129
   2.01526  0.95760  0.00361 -0.85861  0.011597  0.006011  0.001661     1.929
   2.02837  0.97069  0.00296 -0.86255  0.010523  0.005921  0.002171     1.777
   2.04040  0.98268  0.00205 -0.87080  0.009497  0.005733  0.002731     1.657
   2.05125  0.99348  0.00090 -0.88389  0.008485  0.005451  0.003378     1.557
   2.05783  1.00000  0.00000 -0.88083  0.008525  0.005533  0.003400     1.541
   2.05783  1.00010 -0.00002  0.88083  0.038085  0.017595  0.000000     2.165
   2.06446  1.00660 -0.00133  0.88716  0.034611  0.017083  0.000000     2.026
   2.07221  1.01424 -0.00264  0.88985  0.032737  0.016874  0.000000     1.940
   2.08127  1.02319 -0.00402  0.89283  0.030926  0.016651  0.000000     1.857
   2.09186  1.03367 -0.00550  0.89630  0.029142  0.016403  0.000000     1.777
   2.10423  1.04594 -0.00710  0.90049  0.027359  0.016116  0.000000     1.698
   2.11869  1.06030 -0.00882  0.90550  0.025590  0.015788  0.000000     1.621
   2.13560  1.07710 -0.01069  0.91137  0.023864  0.015424  0.000000     1.547
   2.15535  1.09675 -0.01271  0.91799  0.022213  0.015034  0.000000     1.477
   2.17845  1.11974 -0.01489  0.92518  0.020670  0.014634  0.000000     1.413
   2.20544  1.14663 -0.01724  0.93272  0.019261  0.014237  0.000000     1.353
   2.23698  1.17808 -0.01976  0.94031  0.018001  0.013857  0.000000     1.299
   2.27386  1.21485 -0.02245  0.94772  0.016893  0.013505  0.000000     1.251
   2.31695  1.25785 -0.02531  0.95472  0.015932  0.013187  0.000000     1.208
   2.36732  1.30813 -0.02834  0.96120  0.015110  0.012905  0.000000     1.171
   2.42619  1.36692 -0.03152  0.96709  0.014414  0.012658  0.000000     1.139
   2.49501  1.43565 -0.03483  0.97237  0.013831  0.012444  0.000000     1.111
   2.57543  1.51600 -0.03826  0.97701  0.013349  0.012260  0.000000     1.089
   2.66944  1.60994 -0.04176  0.98104  0.012953  0.012102  0.000000     1.070
   2.77931  1.71975 -0.04530  0.98451  0.012633  0.011970  0.000000     1.055
   2.90773  1.84812 -0.04883  0.98744  0.012377  0.011860  0.000000     1.044
   3.05782  1.99818 -0.05228  0.99042  0.012154  0.011750  0.000000     1.034
