#    s        x        y     Ue/Vinf    Dstar     Theta      Cf       H
   0.00000  1.00000  0.00000  0.89721  0.034726  0.011855  0.000215     2.929
   0.00668  0.99360  0.00192  0.90214  0.032452  0.011542  0.000283     2.812
   0.01807  0.98272  0.00530  0.91001  0.030158  0.011071  0.000347     2.724
   0.03106  0.97032  0.00914  0.91977  0.027848  0.010529  0.000419     2.645
   0.04516  0.95680  0.01317  0.93091  0.025778  0.009956  0.000484     2.589
   0.06006  0.94246  0.01720  0.94297  0.024074  0.009383  0.000528     2.566
   0.07565  0.92739  0.02118  0.95569  0.022755  0.008820  0.000539     2.580
   0.09186  0.91167  0.02516  0.96924  0.021762  0.008262  0.000512     2.634
   0.10852  0.89549  0.02915  0.98394  0.021018  0.007696  0.000450     2.731
   0.12544  0.87905  0.03313  1.00021  0.020496  0.007109  0.000353     2.883
   0.14250  0.86245  0.03708  1.01869  0.020171  0.006486  0.000245     3.110
   0.15964  0.84577  0.04099  1.04031  0.020014  0.005804  0.000116     3.448
   0.17681  0.82904  0.04484  1.06701  0.019967  0.005022 -0.000035     3.976
   0.19398  0.81229  0.04864  1.09800  0.019981  0.004185 -0.000155     4.775
   0.21115  0.79553  0.05238  1.13148  0.019999  0.003355 -0.000210     5.961
   0.22833  0.77875  0.05606  1.16965  0.019892  0.002493 -0.000266     7.979
   0.24546  0.76200  0.05967  1.20948  0.019544  0.001687 -0.000384    11.586
   0.26249  0.74535  0.06319  1.21040  0.019215  0.001672 -0.000388    11.495
   0.27941  0.72877  0.06660  1.21119  0.018627  0.001659 -0.000392    11.225
   0.29629  0.71222  0.06990  1.21192  0.017871  0.001649 -0.000397    10.839
   0.31313  0.69568  0.07308  1.21263  0.016996  0.001639 -0.000401    10.371
   0.32994  0.67915  0.07616  1.21337  0.016044  0.001629 -0.000407     9.848
   0.34670  0.66266  0.07911  1.21416  0.015032  0.001619 -0.000413     9.283
   0.36339  0.64620  0.08193  1.21504  0.013993  0.001609 -0.000421     8.698
   0.38005  0.62976  0.08462  1.21608  0.012954  0.001597 -0.000430     8.112
   0.39672  0.61329  0.08718  1.21732  0.011925  0.001583 -0.000442     7.531
   0.41338  0.59681  0.08962  1.21883  0.010904  0.001568 -0.000457     6.954
   0.42997  0.58038  0.09191  1.22067  0.009912  0.001550 -0.000477     6.394
   0.44649  0.56400  0.09406  1.22295  0.008975  0.001529 -0.000501     5.868
   0.46301  0.54760  0.09605  1.22580  0.008105  0.001505 -0.000518     5.384
   0.47954  0.53117  0.09790  1.22932  0.007294  0.001478 -0.000513     4.936
   0.49603  0.51477  0.09961  1.23358  0.006544  0.001446 -0.000448     4.525
   0.51242  0.49845  0.10115  1.23859  0.005867  0.001411 -0.000285     4.156
   0.52875  0.48218  0.10252  1.24426  0.005290  0.001374 -0.000020     3.849
   0.54509  0.46588  0.10371  1.25072  0.004799  0.001333  0.000331     3.599
   0.56144  0.44957  0.10475  1.25793  0.004369  0.001289  0.000763     3.390
   0.57774  0.43329  0.10561  1.26564  0.003997  0.001243  0.001259     3.216
   0.59394  0.41711  0.10630  1.27346  0.003684  0.001197  0.001776     3.079
   0.61007  0.40098  0.10679  1.28100  0.003427  0.001152  0.002273     2.975
   0.62617  0.38489  0.10708  1.28822  0.003203  0.001108  0.002776     2.890
   0.64227  0.36879  0.10718  1.29472  0.003021  0.001067  0.003217     2.830
   0.65836  0.35270  0.10708  1.30096  0.002845  0.001027  0.003710     2.772
   0.67432  0.33674  0.10680  1.30688  0.002672  0.000986  0.004292     2.710
   0.69010  0.32097  0.10629  1.31188  0.002517  0.000948  0.004888     2.655
   0.70583  0.30526  0.10554  1.31495  0.002407  0.000915  0.005265     2.632
   0.72167  0.28945  0.10454  1.31705  0.002318  0.000883  0.005521     2.625
   0.73747  0.27369  0.10335  1.32024  0.002188  0.000847  0.006153     2.583
   0.75302  0.25820  0.10195  1.32243  0.002058  0.000812  0.006909     2.535
   0.76841  0.24291  0.10027  1.32191  0.001964  0.000782  0.007422     2.512
   0.78386  0.22758  0.09831  1.31923  0.001901  0.000755  0.007622     2.516
   0.79934  0.21226  0.09610  1.31720  0.001815  0.000725  0.008101     2.501
   0.81467  0.19713  0.09366  1.31421  0.001728  0.000696  0.008643     2.484
   0.82983  0.18221  0.09095  1.30973  0.001648  0.000667  0.009153     2.471
   0.84493  0.16741  0.08797  1.30341  0.001585  0.000640  0.009408     2.477
   0.85995  0.15275  0.08473  1.29721  0.001512  0.000611  0.009826     2.477
   0.87475  0.13836  0.08125  1.29043  0.001435  0.000580  0.010331     2.474
   0.88915  0.12444  0.07757  1.28341  0.001333  0.000546  0.011450     2.440
   0.90314  0.11101  0.07364  1.27178  0.001261  0.000517  0.012039     2.437
   0.91683  0.09797  0.06946  1.25838  0.001206  0.000489  0.012112     2.464
   0.92993  0.08560  0.06517  1.24735  0.001116  0.000455  0.013136     2.451
   0.94206  0.07425  0.06087  1.23381  0.001005  0.000420  0.015343     2.391
   0.95332  0.06387  0.05649  1.21066  0.000949  0.000396  0.015827     2.398
   0.96371  0.05444  0.05215  1.18793  0.000899  0.000370  0.015932     2.427
   0.97301  0.04611  0.04801  1.16845  0.000826  0.000341  0.017134     2.422
   0.98119  0.03891  0.04412  1.14714  0.000753  0.000313  0.018763     2.406
   0.98837  0.03273  0.04046  1.12189  0.000685  0.000287  0.020618     2.384
   0.99470  0.02743  0.03701  1.09165  0.000628  0.000265  0.022193     2.370
   1.00030  0.02288  0.03375  1.05725  0.000577  0.000245  0.023740     2.355
   1.00527  0.01898  0.03066  1.01837  0.000531  0.000227  0.025119     2.343
   1.00973  0.01561  0.02774  0.97507  0.000491  0.000210  0.026287     2.333
   1.01375  0.01272  0.02495  0.92646  0.000451  0.000195  0.027751     2.311
   1.01739  0.01024  0.02228  0.87115  0.000421  0.000182  0.027991     2.310
   1.02073  0.00811  0.01971  0.81119  0.000388  0.000169  0.028641     2.295
   1.02380  0.00630  0.01724  0.74269  0.000360  0.000158  0.028690     2.279
   1.02664  0.00476  0.01485  0.66576  0.000337  0.000149  0.027769     2.267
   1.02926  0.00350  0.01255  0.58214  0.000319  0.000141  0.025868     2.260
   1.03171  0.00246  0.01033  0.49422  0.000301  0.000133  0.023134     2.266
   1.03400  0.00163  0.00819  0.39502  0.000282  0.000128  0.020741     2.208
   1.03618  0.00098  0.00612  0.29359  0.000288  0.000127  0.014303     2.268
   1.03826  0.00048  0.00410  0.19356  0.000252  0.000112  0.011018     2.244
   1.04024  0.00015  0.00214  0.06706  0.000232  0.000104  0.004206     2.230
   1.04215  0.00001  0.00024 -0.06864  0.000232  0.000104  0.004305     2.230
   1.04400  0.00012 -0.00161 -0.21695  0.000213  0.000096  0.015008     2.217
   1.04587  0.00052 -0.00343 -0.37616  0.000212  0.000095  0.025600     2.238
   1.04780  0.00123 -0.00524 -0.51438  0.000234  0.000103  0.030864     2.269
   1.04986  0.00223 -0.00703 -0.63573  0.000250  0.000111  0.036084     2.255
   1.05205  0.00354 -0.00879 -0.73997  0.000276  0.000121  0.036945     2.288
   1.05438  0.00514 -0.01048 -0.81577  0.000316  0.000136  0.034225     2.330
   1.05689  0.00705 -0.01212 -0.86699  0.000366  0.000154  0.030282     2.368
   1.05960  0.00924 -0.01371 -0.90136  0.000421  0.000176  0.026490     2.400
   1.06254  0.01171 -0.01530 -0.93027  0.000466  0.000195  0.024944     2.391
   1.06576  0.01450 -0.01689 -0.95695  0.000509  0.000213  0.023508     2.389
   1.06931  0.01766 -0.01852 -0.97934  0.000561  0.000233  0.021465     2.407
   1.07328  0.02125 -0.02021 -0.99985  0.000609  0.000253  0.020167     2.407
   1.07773  0.02534 -0.02197 -1.02083  0.000653  0.000272  0.019413     2.398
   1.08275  0.03002 -0.02380 -1.04134  0.000701  0.000292  0.018421     2.399
   1.08845  0.03539 -0.02569 -1.05957  0.000760  0.000315  0.017044     2.413
   1.09493  0.04158 -0.02763 -1.07627  0.000821  0.000339  0.015875     2.422
   1.10237  0.04875 -0.02960 -1.08823  0.000907  0.000369  0.013991     2.459
   1.11095  0.05710 -0.03158 -1.09376  0.001022  0.000406  0.011779     2.514
   1.12083  0.06678 -0.03358 -1.09636  0.001136  0.000447  0.010317     2.540
   1.13204  0.07781 -0.03556 -1.09942  0.001235  0.000488  0.009588     2.533
   1.14448  0.09010 -0.03747 -1.10034  0.001360  0.000532  0.008504     2.556
   1.15809  0.10359 -0.03926 -1.09948  0.001493  0.000579  0.007544     2.578
   1.17266  0.11806 -0.04096 -1.09930  0.001605  0.000624  0.007066     2.573
   1.18781  0.13314 -0.04249 -1.10034  0.001698  0.000664  0.006814     2.556
   1.20335  0.14862 -0.04385 -1.10085  0.001804  0.000705  0.006393     2.558
   1.21923  0.16445 -0.04503 -1.10080  0.001914  0.000746  0.005971     2.567
   1.23540  0.18059 -0.04604 -1.09986  0.002033  0.000787  0.005518     2.583
   1.25175  0.19691 -0.04691 -1.09989  0.002120  0.000824  0.005348     2.573
   1.26813  0.21328 -0.04763 -1.09968  0.002214  0.000860  0.005115     2.574
   1.28457  0.22971 -0.04819 -1.09921  0.002310  0.000896  0.004874     2.579
   1.30115  0.24629 -0.04860 -1.09782  0.002424  0.000933  0.004541     2.598
   1.31783  0.26296 -0.04890 -1.09697  0.002514  0.000968  0.004374     2.598
   1.33448  0.27961 -0.04908 -1.09621  0.002599  0.001000  0.004230     2.598
   1.35110  0.29624 -0.04912 -1.09494  0.002698  0.001034  0.004022     2.608
   1.36778  0.31291 -0.04903 -1.09321  0.002806  0.001069  0.003789     2.624
   1.38450  0.32963 -0.04882 -1.09128  0.002914  0.001104  0.003579     2.639
   1.40120  0.34633 -0.04849 -1.08914  0.003023  0.001139  0.003378     2.655
   1.41786  0.36298 -0.04803 -1.08641  0.003151  0.001175  0.003133     2.681
   1.43449  0.37961 -0.04745 -1.08314  0.003294  0.001213  0.002865     2.715
   1.45114  0.39623 -0.04673 -1.07917  0.003465  0.001254  0.002556     2.763
   1.46777  0.41285 -0.04588 -1.07448  0.003668  0.001298  0.002209     2.826
   1.48439  0.42943 -0.04489 -1.06925  0.003904  0.001344  0.001847     2.906
   1.50097  0.44597 -0.04378 -1.06332  0.004206  0.001393  0.001433     3.019
   1.51751  0.46247 -0.04253 -1.05706  0.004583  0.001445  0.000999     3.172
   1.53401  0.47892 -0.04112 -1.05080  0.005063  0.001497  0.000560     3.382
   1.55050  0.49532 -0.03957 -1.04506  0.005673  0.001545  0.000156     3.671
   1.56702  0.51176 -0.03785 -1.04023  0.006436  0.001588 -0.000157     4.054
   1.58368  0.52831 -0.03597 -1.03617  0.007357  0.001625 -0.000335     4.527
   1.60055  0.54506 -0.03395 -1.03286  0.008400  0.001658 -0.000391     5.066
   1.61761  0.56199 -0.03181 -1.03029  0.009537  0.001686 -0.000387     5.658
   1.63483  0.57906 -0.02959 -1.02831  0.010742  0.001708 -0.000367     6.288
   1.65218  0.59626 -0.02732 -1.02677  0.011983  0.001728 -0.000350     6.936
   1.66962  0.61355 -0.02500 -1.02555  0.013235  0.001744 -0.000338     7.588
   1.68712  0.63090 -0.02268 -1.02454  0.014467  0.001758 -0.000328     8.228
   1.70462  0.64824 -0.02037 -1.02368  0.015656  0.001771 -0.000321     8.838
   1.72205  0.66552 -0.01809 -1.02291  0.016786  0.001783 -0.000315     9.413
   1.73939  0.68272 -0.01585 -1.02222  0.017843  0.001795 -0.000311     9.940
   1.75663  0.69982 -0.01367 -1.02156  0.018797  0.001807 -0.000307    10.404
   1.77378  0.71684 -0.01156 -1.02090  0.019636  0.001819 -0.000303    10.796
   1.79085  0.73379 -0.00953 -1.02022  0.020341  0.001832 -0.000300    11.103
   1.80784  0.75067 -0.00760 -1.01952  0.020897  0.001846 -0.000297    11.318
   1.82474  0.76746 -0.00576 -1.01877  0.021282  0.001862 -0.000294    11.428
   1.84154  0.78418 -0.00404 -1.01795  0.021469  0.001880 -0.000291    11.419
   1.85823  0.80079 -0.00245 -1.01703  0.021422  0.001901 -0.000288    11.271
   1.87481  0.81731 -0.00100 -1.01598  0.021089  0.001924 -0.000285    10.960
   1.89126  0.83371  0.00030 -1.00693  0.020490  0.002145 -0.000223     9.555
   1.90759  0.85000  0.00143 -0.97558  0.019775  0.002952 -0.000197     6.699
   1.92381  0.86619  0.00238 -0.94638  0.018740  0.003746 -0.000157     5.003
   1.93987  0.88223  0.00314 -0.91820  0.017537  0.004548 -0.000006     3.856
   1.95573  0.89808  0.00370 -0.89692  0.016219  0.005175  0.000257     3.134
   1.97131  0.91366  0.00404 -0.88211  0.014886  0.005618  0.000559     2.650
   1.98653  0.92887  0.00415 -0.87330  0.013590  0.005883  0.000872     2.310
   2.00124  0.94358  0.00401 -0.86977  0.012368  0.005994  0.001300     2.063
   2.01526  0.95760  0.00361 -0.87092  0.011231  0.005977  0.001770     1.879
   2.02837  0.97069  0.00296 -0.87646  0.010162  0.005851  0.002279     1.737
   2.04040  0.98268  0.00205 -0.88658  0.009133  0.005629  0.002842     1.623
   2.05125  0.99348  0.00090 -0.90216  0.008106  0.005310  0.003496     1.527
   2.05783  1.00000  0.00000 -0.89721  0.008237  0.005428  0.003490     1.517
   2.05783  1.00010 -0.00002  0.89721  0.042963  0.017283  0.000000     2.486
   2.06446  1.00660 -0.00133  0.90006  0.039237  0.017044  0.000000     2.302
   2.07221  1.01423 -0.00264  0.90063  0.037219  0.016998  0.000000     2.190
   2.08127  1.02319 -0.00403  0.90151  0.035235  0.016930  0.000000     2.081
   2.09186  1.03367 -0.00551  0.90289  0.033238  0.016826  0.000000     1.975
   2.10423  1.04594 -0.00712  0.90505  0.031198  0.016669  0.000000     1.872
   2.11869  1.06029 -0.00886  0.90817  0.029127  0.016451  0.000000     1.771
   2.13560  1.07709 -0.01074  0.91240  0.027063  0.016169  0.000000     1.674
   2.15535  1.09674 -0.01278  0.91774  0.025053  0.015831  0.000000     1.583
   2.17845  1.11973 -0.01499  0.92407  0.023151  0.015450  0.000000     1.498
   2.20544  1.14662 -0.01737  0.93114  0.021399  0.015048  0.000000     1.422
   2.23698  1.17806 -0.01994  0.93860  0.019830  0.014646  0.000000     1.354
   2.27386  1.21483 -0.02268  0.94611  0.018456  0.014264  0.000000     1.294
   2.31695  1.25782 -0.02562  0.95335  0.017274  0.013913  0.000000     1.242
   2.36732  1.30810 -0.02873  0.96010  0.016273  0.013601  0.000000     1.196
   2.42619  1.36688 -0.03203  0.96625  0.015434  0.013328  0.000000     1.158
   2.49501  1.43560 -0.03549  0.97174  0.014740  0.013093  0.000000     1.126
   2.57543  1.51595 -0.03909  0.97657  0.014172  0.012892  0.000000     1.099
   2.66944  1.60988 -0.04282  0.98076  0.013712  0.012723  0.000000     1.078
   2.77931  1.71968 -0.04665  0.98435  0.013344  0.012581  0.000000     1.061
   2.90773  1.84804 -0.05052  0.98736  0.013054  0.012465  0.000000     1.047
   3.05782  1.99809 -0.05439  0.99046  0.012802  0.012346  0.000000     1.037
