#    s        x        y     Ue/Vinf    Dstar     Theta      Cf       H
   0.00000  1.00000  0.00000  0.88706  0.033002  0.012864  0.000425     2.566
   0.00668  0.99360  0.00192  0.89335  0.030684  0.012458  0.000523     2.463
   0.01807  0.98272  0.00530  0.90254  0.028236  0.011903  0.000635     2.372
   0.03106  0.97032  0.00914  0.91387  0.025757  0.011272  0.000770     2.285
   0.04516  0.95680  0.01317  0.92660  0.023512  0.010623  0.000909     2.213
   0.06006  0.94246  0.01720  0.93993  0.021628  0.009998  0.001036     2.163
   0.07565  0.92739  0.02118  0.95334  0.020121  0.009418  0.001133     2.137
   0.09186  0.91167  0.02516  0.96675  0.018925  0.008880  0.001195     2.131
   0.10852  0.89549  0.02915  0.98032  0.017957  0.008372  0.001220     2.145
   0.12544  0.87905  0.03313  0.99407  0.017194  0.007890  0.001203     2.179
   0.14250  0.86245  0.03708  1.00815  0.016622  0.007427  0.001139     2.238
   0.15964  0.84577  0.04099  1.02283  0.016232  0.006973  0.001024     2.328
   0.17681  0.82904  0.04484  1.03866  0.016014  0.006510  0.000858     2.460
   0.19398  0.81229  0.04864  1.05645  0.015960  0.006020  0.000647     2.651
   0.21115  0.79553  0.05238  1.07736  0.016062  0.005477  0.000435     2.933
   0.22833  0.77875  0.05606  1.10304  0.016284  0.004850  0.000195     3.358
   0.24546  0.76200  0.05967  1.13583  0.016560  0.004104 -0.000061     4.035
   0.26249  0.74535  0.06319  1.17500  0.016827  0.003285 -0.000226     5.123
   0.27941  0.72877  0.06660  1.21770  0.017007  0.002470 -0.000291     6.886
   0.29629  0.71222  0.06990  1.26489  0.016943  0.001657 -0.000415    10.223
   0.31313  0.69568  0.07308  1.26618  0.016844  0.001639 -0.000420    10.277
   0.32994  0.67915  0.07616  1.26729  0.016461  0.001624 -0.000425    10.138
   0.34670  0.66266  0.07911  1.26831  0.015885  0.001610 -0.000430     9.865
   0.36339  0.64620  0.08193  1.26931  0.015181  0.001598 -0.000436     9.501
   0.38005  0.62976  0.08462  1.27033  0.014396  0.001586 -0.000443     9.079
   0.39672  0.61329  0.08718  1.27142  0.013552  0.001573 -0.000451     8.614
   0.41338  0.59681  0.08962  1.27262  0.012658  0.001560 -0.000461     8.113
   0.42997  0.58038  0.09191  1.27398  0.011737  0.001546 -0.000473     7.590
   0.44649  0.56400  0.09406  1.27557  0.010824  0.001531 -0.000488     7.070
   0.46301  0.54760  0.09605  1.27748  0.009931  0.001513 -0.000507     6.562
   0.47954  0.53117  0.09790  1.27978  0.009061  0.001493 -0.000530     6.067
   0.49603  0.51477  0.09961  1.28258  0.008211  0.001471 -0.000554     5.582
   0.51242  0.49845  0.10115  1.28598  0.007415  0.001445 -0.000561     5.130
   0.52875  0.48218  0.10252  1.29011  0.006693  0.001416 -0.000531     4.726
   0.54509  0.46588  0.10371  1.29503  0.006044  0.001384 -0.000428     4.368
   0.56144  0.44957  0.10475  1.30066  0.005453  0.001349 -0.000222     4.043
   0.57774  0.43329  0.10561  1.30704  0.004920  0.001311  0.000106     3.754
   0.59394  0.41711  0.10630  1.31425  0.004461  0.001269  0.000530     3.515
   0.61007  0.40098  0.10679  1.32208  0.004076  0.001225  0.001010     3.326
   0.62617  0.38489  0.10708  1.33024  0.003752  0.001181  0.001519     3.178
   0.64227  0.36879  0.10718  1.33842  0.003480  0.001136  0.002034     3.062
   0.65836  0.35270  0.10708  1.34653  0.003236  0.001092  0.002581     2.962
   0.67432  0.33674  0.10680  1.35453  0.003008  0.001049  0.003210     2.868
   0.69010  0.32097  0.10629  1.36183  0.002809  0.001007  0.003841     2.790
   0.70583  0.30526  0.10554  1.36761  0.002665  0.000970  0.004295     2.748
   0.72167  0.28945  0.10454  1.37250  0.002547  0.000935  0.004646     2.724
   0.73747  0.27369  0.10335  1.37809  0.002397  0.000897  0.005275     2.674
   0.75302  0.25820  0.10195  1.38318  0.002244  0.000859  0.006077     2.613
   0.76841  0.24291  0.10027  1.38567  0.002135  0.000826  0.006613     2.584
   0.78386  0.22758  0.09831  1.38620  0.002062  0.000798  0.006846     2.585
   0.79934  0.21226  0.09610  1.38740  0.001967  0.000766  0.007321     2.568
   0.81467  0.19713  0.09366  1.38817  0.001866  0.000734  0.007932     2.543
   0.82983  0.18221  0.09095  1.38715  0.001785  0.000704  0.008353     2.536
   0.84493  0.16741  0.08797  1.38534  0.001711  0.000675  0.008697     2.536
   0.85995  0.15275  0.08473  1.38336  0.001636  0.000644  0.009054     2.540
   0.87475  0.13836  0.08125  1.38177  0.001546  0.000611  0.009676     2.529
   0.88915  0.12444  0.07757  1.37982  0.001440  0.000576  0.010735     2.498
   0.90314  0.11101  0.07364  1.37437  0.001362  0.000546  0.011331     2.496
   0.91683  0.09797  0.06946  1.36761  0.001304  0.000516  0.011392     2.526
   0.92993  0.08560  0.06517  1.36408  0.001202  0.000480  0.012625     2.504
   0.94206  0.07425  0.06087  1.35844  0.001081  0.000443  0.014963     2.439
   0.95332  0.06387  0.05649  1.34381  0.001024  0.000417  0.015379     2.455
   0.96371  0.05444  0.05215  1.33055  0.000974  0.000390  0.015331     2.496
   0.97301  0.04611  0.04801  1.32205  0.000891  0.000359  0.016872     2.484
   0.98119  0.03891  0.04412  1.31155  0.000810  0.000329  0.018831     2.462
   0.98837  0.03273  0.04046  1.29758  0.000739  0.000302  0.020740     2.447
   0.99470  0.02743  0.03701  1.28038  0.000671  0.000277  0.023234     2.418
   1.00030  0.02288  0.03375  1.25775  0.000616  0.000256  0.025253     2.402
   1.00527  0.01898  0.03066  1.23138  0.000566  0.000237  0.027230     2.389
   1.00973  0.01561  0.02774  1.20112  0.000521  0.000219  0.029351     2.373
   1.01375  0.01272  0.02495  1.16564  0.000478  0.000203  0.031755     2.350
   1.01739  0.01024  0.02228  1.12380  0.000444  0.000189  0.033076     2.346
   1.02073  0.00811  0.01971  1.07731  0.000408  0.000176  0.035234     2.323
   1.02380  0.00630  0.01724  1.02228  0.000379  0.000164  0.036523     2.309
   1.02664  0.00476  0.01485  0.95885  0.000351  0.000154  0.037868     2.282
   1.02926  0.00350  0.01255  0.88824  0.000336  0.000146  0.036189     2.297
   1.03171  0.00246  0.01033  0.81239  0.000309  0.000137  0.037766     2.245
   1.03400  0.00163  0.00819  0.72344  0.000303  0.000135  0.034029     2.252
   1.03618  0.00098  0.00612  0.63887  0.000294  0.000129  0.030285     2.278
   1.03826  0.00048  0.00410  0.55142  0.000271  0.000120  0.028871     2.257
   1.04024  0.00015  0.00214  0.45181  0.000254  0.000112  0.025000     2.269
   1.04215  0.00001  0.00024  0.33717  0.000228  0.000101  0.021186     2.247
   1.04400  0.00012 -0.00161  0.19655  0.000216  0.000097  0.013271     2.228
   1.04587  0.00052 -0.00343  0.04522  0.000220  0.000099  0.002993     2.230
   1.04780  0.00123 -0.00524 -0.10855  0.000220  0.000099  0.007186     2.230
   1.04986  0.00223 -0.00703 -0.25256  0.000240  0.000107  0.015021     2.249
   1.05205  0.00354 -0.00879 -0.37872  0.000260  0.000116  0.020830     2.247
   1.05438  0.00514 -0.01048 -0.48030  0.000296  0.000130  0.022386     2.287
   1.05689  0.00705 -0.01212 -0.55759  0.000337  0.000146  0.022624     2.298
   1.05960  0.00924 -0.01371 -0.61757  0.000383  0.000165  0.021578     2.321
   1.06254  0.01171 -0.01530 -0.66959  0.000418  0.000181  0.021604     2.311
   1.06576  0.01450 -0.01689 -0.71478  0.000462  0.000198  0.020531     2.329
   1.06931  0.01766 -0.01852 -0.75344  0.000508  0.000217  0.019455     2.342
   1.07328  0.02125 -0.02021 -0.78872  0.000552  0.000236  0.018684     2.344
   1.07773  0.02534 -0.02197 -0.82499  0.000587  0.000252  0.018680     2.328
   1.08275  0.03002 -0.02380 -0.85806  0.000638  0.000271  0.017499     2.350
   1.08845  0.03539 -0.02569 -0.88863  0.000689  0.000292  0.016680     2.356
   1.09493  0.04158 -0.02763 -0.91638  0.000749  0.000316  0.015604     2.371
   1.10237  0.04875 -0.02960 -0.93991  0.000822  0.000344  0.014232     2.394
   1.11095  0.05710 -0.03158 -0.95619  0.000926  0.000379  0.012264     2.441
   1.12083  0.06678 -0.03358 -0.96986  0.001020  0.000417  0.011194     2.449
   1.13204  0.07781 -0.03556 -0.98246  0.001115  0.000455  0.010359     2.451
   1.14448  0.09010 -0.03747 -0.99225  0.001226  0.000497  0.009328     2.470
   1.15809  0.10359 -0.03926 -0.99950  0.001344  0.000540  0.008417     2.487
   1.17266  0.11806 -0.04096 -1.00633  0.001447  0.000582  0.007895     2.485
   1.18781  0.13314 -0.04249 -1.01378  0.001532  0.000620  0.007626     2.470
   1.20335  0.14862 -0.04385 -1.02000  0.001629  0.000658  0.007177     2.475
   1.21923  0.16445 -0.04503 -1.02470  0.001734  0.000697  0.006687     2.488
   1.23540  0.18059 -0.04604 -1.02825  0.001838  0.000735  0.006250     2.500
   1.25175  0.19691 -0.04691 -1.03211  0.001920  0.000770  0.006040     2.494
   1.26813  0.21328 -0.04763 -1.03580  0.002000  0.000803  0.005842     2.491
   1.28457  0.22971 -0.04819 -1.03834  0.002095  0.000837  0.005526     2.502
   1.30115  0.24629 -0.04860 -1.04034  0.002188  0.000871  0.005248     2.511
   1.31783  0.26296 -0.04890 -1.04209  0.002275  0.000904  0.005028     2.516
   1.33448  0.27961 -0.04908 -1.04408  0.002347  0.000934  0.004902     2.513
   1.35110  0.29624 -0.04912 -1.04552  0.002429  0.000965  0.004715     2.518
   1.36778  0.31291 -0.04903 -1.04612  0.002526  0.000997  0.004466     2.533
   1.38450  0.32963 -0.04882 -1.04668  0.002612  0.001028  0.004287     2.540
   1.40120  0.34633 -0.04849 -1.04690  0.002700  0.001059  0.004107     2.549
   1.41786  0.36298 -0.04803 -1.04662  0.002796  0.001091  0.003905     2.563
   1.43449  0.37961 -0.04745 -1.04559  0.002907  0.001125  0.003659     2.585
   1.45114  0.39623 -0.04673 -1.04397  0.003029  0.001160  0.003401     2.611
   1.46777  0.41285 -0.04588 -1.04154  0.003170  0.001197  0.003108     2.648
   1.48439  0.42943 -0.04489 -1.03848  0.003327  0.001237  0.002807     2.690
   1.50097  0.44597 -0.04378 -1.03456  0.003515  0.001280  0.002462     2.747
   1.51751  0.46247 -0.04253 -1.02975  0.003748  0.001326  0.002073     2.826
   1.53401  0.47892 -0.04112 -1.02398  0.004050  0.001378  0.001621     2.940
   1.55050  0.49532 -0.03957 -1.01763  0.004436  0.001432  0.001140     3.097
   1.56702  0.51176 -0.03785 -1.01110  0.004943  0.001488  0.000644     3.321
   1.58368  0.52831 -0.03597 -1.00510  0.005587  0.001541  0.000200     3.626
   1.60055  0.54506 -0.03395 -1.00008  0.006352  0.001587 -0.000121     4.003
   1.61761  0.56199 -0.03181 -0.99585  0.007214  0.001627 -0.000299     4.434
   1.63483  0.57906 -0.02959 -0.99229  0.008158  0.001664 -0.000365     4.904
   1.65218  0.59626 -0.02732 -0.98940  0.009157  0.001695 -0.000371     5.401
   1.66962  0.61355 -0.02500 -0.98707  0.010194  0.001723 -0.000358     5.917
   1.68712  0.63090 -0.02268 -0.98516  0.011240  0.001747 -0.000341     6.433
   1.70462  0.64824 -0.02037 -0.98357  0.012275  0.001769 -0.000327     6.940
   1.72205  0.66552 -0.01809 -0.98223  0.013287  0.001788 -0.000317     7.430
   1.73939  0.68272 -0.01585 -0.98105  0.014264  0.001806 -0.000309     7.897
   1.75663  0.69982 -0.01367 -0.98000  0.015176  0.001823 -0.000302     8.324
   1.77378  0.71684 -0.01156 -0.97903  0.016015  0.001840 -0.000297     8.706
   1.79085  0.73379 -0.00953 -0.97810  0.016765  0.001856 -0.000292     9.032
   1.80784  0.75067 -0.00760 -0.97720  0.017417  0.001873 -0.000287     9.300
   1.82474  0.76746 -0.00576 -0.97630  0.017956  0.001890 -0.000284     9.501
   1.84154  0.78418 -0.00404 -0.97538  0.018366  0.001908 -0.000280     9.626
   1.85823  0.80079 -0.00245 -0.97444  0.018633  0.001927 -0.000277     9.668
   1.87481  0.81731 -0.00100 -0.97344  0.018736  0.001948 -0.000274     9.618
   1.89126  0.83371  0.00030 -0.97236  0.018650  0.001971 -0.000271     9.464
   1.90759  0.85000  0.00143 -0.97118  0.018352  0.001996 -0.000269     9.196
   1.92381  0.86619  0.00238 -0.96987  0.017803  0.002023 -0.000267     8.799
   1.93987  0.88223  0.00314 -0.96837  0.016953  0.002054 -0.000265     8.253
   1.95573  0.89808  0.00370 -0.94378  0.015950  0.002598 -0.000192     6.140
   1.97131  0.91366  0.00404 -0.91465  0.014692  0.003266 -0.000132     4.499
   1.98653  0.92887  0.00415 -0.88930  0.013251  0.003862  0.000158     3.431
   2.00124  0.94358  0.00401 -0.87340  0.011750  0.004238  0.000602     2.773
   2.01526  0.95760  0.00361 -0.86553  0.010309  0.004424  0.001113     2.330
   2.02837  0.97069  0.00296 -0.86569  0.008972  0.004432  0.001669     2.024
   2.04040  0.98268  0.00205 -0.87351  0.007742  0.004295  0.002296     1.803
   2.05125  0.99348  0.00090 -0.88958  0.006581  0.004032  0.003178     1.632
   2.05783  1.00000  0.00000 -0.88706  0.006549  0.004087  0.003304     1.602
   2.05783  1.00010 -0.00002  0.88706  0.039551  0.016950  0.000000     2.333
   2.06446  1.00660 -0.00133  0.89178  0.036009  0.016572  0.000000     2.173
   2.07221  1.01424 -0.00262  0.89367  0.034086  0.016428  0.000000     2.075
   2.08127  1.02319 -0.00397  0.89587  0.032217  0.016267  0.000000     1.981
   2.09186  1.03368 -0.00541  0.89855  0.030362  0.016077  0.000000     1.889
   2.10423  1.04596 -0.00696  0.90195  0.028495  0.015845  0.000000     1.798
   2.11869  1.06033 -0.00861  0.90620  0.026627  0.015568  0.000000     1.710
   2.13560  1.07714 -0.01038  0.91137  0.024789  0.015247  0.000000     1.626
   2.15535  1.09681 -0.01226  0.91741  0.023019  0.014890  0.000000     1.546
   2.17845  1.11981 -0.01427  0.92417  0.021356  0.014511  0.000000     1.472
   2.20544  1.14672 -0.01640  0.93140  0.019830  0.014128  0.000000     1.404
   2.23698  1.17818 -0.01863  0.93882  0.018461  0.013755  0.000000     1.342
   2.27386  1.21498 -0.02095  0.94615  0.017256  0.013405  0.000000     1.287
   2.31695  1.25801 -0.02335  0.95315  0.016212  0.013086  0.000000     1.239
   2.36732  1.30832 -0.02579  0.95967  0.015318  0.012803  0.000000     1.197
   2.42619  1.36715 -0.02823  0.96562  0.014561  0.012554  0.000000     1.160
   2.49501  1.43591 -0.03061  0.97096  0.013926  0.012338  0.000000     1.129
   2.57543  1.51631 -0.03288  0.97570  0.013401  0.012152  0.000000     1.103
   2.66944  1.61029 -0.03494  0.97985  0.012970  0.011994  0.000000     1.081
   2.77931  1.72015 -0.03669  0.98342  0.012621  0.011860  0.000000     1.064
   2.90773  1.84856 -0.03801  0.98646  0.012343  0.011749  0.000000     1.051
   3.05782  1.99865 -0.03874  0.98960  0.012100  0.011636  0.000000     1.040
