#    s        x        y     Ue/Vinf    Dstar     Theta      Cf       H
   0.00000  1.00000  0.00000  0.88501  0.033609  0.013489  0.000476     2.492
   0.00668  0.99360  0.00192  0.89157  0.031190  0.013051  0.000584     2.390
   0.01807  0.98272  0.00530  0.90098  0.028623  0.012466  0.000712     2.296
   0.03106  0.97032  0.00914  0.91262  0.026013  0.011797  0.000867     2.205
   0.04516  0.95680  0.01317  0.92576  0.023629  0.011108  0.001036     2.127
   0.06006  0.94246  0.01720  0.93956  0.021604  0.010445  0.001198     2.068
   0.07565  0.92739  0.02118  0.95344  0.019949  0.009833  0.001340     2.029
   0.09186  0.91167  0.02516  0.96725  0.018597  0.009269  0.001455     2.006
   0.10852  0.89549  0.02915  0.98114  0.017466  0.008742  0.001542     1.998
   0.12544  0.87905  0.03313  0.99500  0.016529  0.008252  0.001596     2.003
   0.14250  0.86245  0.03708  1.00881  0.015769  0.007795  0.001611     2.023
   0.15964  0.84577  0.04099  1.02264  0.015175  0.007365  0.001578     2.061
   0.17681  0.82904  0.04484  1.03668  0.014736  0.006953  0.001492     2.119
   0.19398  0.81229  0.04864  1.05123  0.014449  0.006551  0.001349     2.206
   0.21115  0.79553  0.05238  1.06683  0.014316  0.006142  0.001144     2.331
   0.22833  0.77875  0.05606  1.08442  0.014330  0.005707  0.000885     2.511
   0.24546  0.76200  0.05967  1.10523  0.014475  0.005220  0.000618     2.773
   0.26249  0.74535  0.06319  1.13080  0.014749  0.004656  0.000335     3.168
   0.27941  0.72877  0.06660  1.16312  0.015121  0.003989  0.000016     3.791
   0.29629  0.71222  0.06990  1.20475  0.015505  0.003195 -0.000228     4.853
   0.31313  0.69568  0.07308  1.25017  0.015806  0.002403 -0.000312     6.578
   0.32994  0.67915  0.07616  1.29929  0.015861  0.001628 -0.000437     9.743
   0.34670  0.66266  0.07911  1.30076  0.015830  0.001609 -0.000442     9.841
   0.36339  0.64620  0.08193  1.30203  0.015511  0.001592 -0.000447     9.740
   0.38005  0.62976  0.08462  1.30321  0.015015  0.001578 -0.000453     9.516
   0.39672  0.61329  0.08718  1.30437  0.014387  0.001564 -0.000460     9.197
   0.41338  0.59681  0.08962  1.30554  0.013657  0.001551 -0.000468     8.804
   0.42997  0.58038  0.09191  1.30678  0.012850  0.001538 -0.000477     8.355
   0.44649  0.56400  0.09406  1.30814  0.012012  0.001524 -0.000488     7.881
   0.46301  0.54760  0.09605  1.30970  0.011162  0.001509 -0.000501     7.396
   0.47954  0.53117  0.09790  1.31150  0.010299  0.001493 -0.000518     6.899
   0.49603  0.51477  0.09961  1.31363  0.009430  0.001475 -0.000540     6.395
   0.51242  0.49845  0.10115  1.31618  0.008586  0.001454 -0.000566     5.905
   0.52875  0.48218  0.10252  1.31929  0.007800  0.001431 -0.000587     5.452
   0.54509  0.46588  0.10371  1.32306  0.007067  0.001404 -0.000589     5.033
   0.56144  0.44957  0.10475  1.32760  0.006375  0.001374 -0.000542     4.639
   0.57774  0.43329  0.10561  1.33295  0.005738  0.001341 -0.000405     4.279
   0.59394  0.41711  0.10630  1.33901  0.005171  0.001306 -0.000152     3.960
   0.61007  0.40098  0.10679  1.34588  0.004678  0.001267  0.000213     3.691
   0.62617  0.38489  0.10708  1.35355  0.004258  0.001226  0.000659     3.473
   0.64227  0.36879  0.10718  1.36184  0.003901  0.001182  0.001159     3.299
   0.65836  0.35270  0.10708  1.37053  0.003585  0.001138  0.001723     3.152
   0.67432  0.33674  0.10680  1.37942  0.003299  0.001092  0.002371     3.020
   0.69010  0.32097  0.10629  1.38795  0.003055  0.001049  0.003034     2.913
   0.70583  0.30526  0.10554  1.39525  0.002878  0.001009  0.003531     2.852
   0.72167  0.28945  0.10454  1.40178  0.002735  0.000971  0.003928     2.815
   0.73747  0.27369  0.10335  1.40907  0.002557  0.000931  0.004616     2.747
   0.75302  0.25820  0.10195  1.41566  0.002388  0.000891  0.005401     2.680
   0.76841  0.24291  0.10027  1.42006  0.002266  0.000857  0.005961     2.644
   0.78386  0.22758  0.09831  1.42263  0.002182  0.000827  0.006232     2.640
   0.79934  0.21226  0.09610  1.42581  0.002078  0.000793  0.006717     2.619
   0.81467  0.19713  0.09366  1.42866  0.001970  0.000760  0.007327     2.592
   0.82983  0.18221  0.09095  1.42988  0.001884  0.000729  0.007731     2.584
   0.84493  0.16741  0.08797  1.43055  0.001805  0.000698  0.008064     2.585
   0.85995  0.15275  0.08473  1.43141  0.001721  0.000666  0.008486     2.583
   0.87475  0.13836  0.08125  1.43238  0.001629  0.000633  0.009045     2.576
   0.88915  0.12444  0.07757  1.43367  0.001516  0.000596  0.010099     2.542
   0.90314  0.11101  0.07364  1.43186  0.001433  0.000564  0.010714     2.539
   0.91683  0.09797  0.06946  1.42884  0.001373  0.000534  0.010752     2.572
   0.92993  0.08560  0.06517  1.42956  0.001261  0.000496  0.012103     2.543
   0.94206  0.07425  0.06087  1.42813  0.001140  0.000459  0.014254     2.483
   0.95332  0.06387  0.05649  1.41935  0.001076  0.000431  0.014764     2.498
   0.96371  0.05444  0.05215  1.41162  0.001025  0.000403  0.014684     2.543
   0.97301  0.04611  0.04801  1.40899  0.000938  0.000370  0.016212     2.533
   0.98119  0.03891  0.04412  1.40509  0.000849  0.000339  0.018384     2.506
   0.98837  0.03273  0.04046  1.39763  0.000770  0.000311  0.020768     2.477
   0.99470  0.02743  0.03701  1.38606  0.000705  0.000286  0.022826     2.463
   1.00030  0.02288  0.03375  1.37174  0.000640  0.000263  0.025726     2.431
   1.00527  0.01898  0.03066  1.35188  0.000592  0.000244  0.027566     2.426
   1.00973  0.01561  0.02774  1.32989  0.000541  0.000225  0.030356     2.403
   1.01375  0.01272  0.02495  1.30213  0.000494  0.000208  0.033567     2.373
   1.01739  0.01024  0.02228  1.26719  0.000459  0.000194  0.035295     2.368
   1.02073  0.00811  0.01971  1.22815  0.000421  0.000180  0.038266     2.341
   1.02380  0.00630  0.01724  1.18099  0.000393  0.000168  0.039663     2.335
   1.02664  0.00476  0.01485  1.12680  0.000359  0.000157  0.043265     2.288
   1.02926  0.00350  0.01255  1.06085  0.000345  0.000150  0.041886     2.301
   1.03171  0.00246  0.01033  0.99363  0.000322  0.000142  0.042996     2.276
   1.03400  0.00163  0.00819  0.91483  0.000305  0.000136  0.043055     2.243
   1.03618  0.00098  0.00612  0.83295  0.000305  0.000133  0.037364     2.297
   1.03826  0.00048  0.00410  0.75767  0.000281  0.000123  0.037495     2.280
   1.04024  0.00015  0.00214  0.67160  0.000261  0.000113  0.035271     2.296
   1.04215  0.00001  0.00024  0.56834  0.000232  0.000103  0.035046     2.249
   1.04400  0.00012 -0.00161  0.43833  0.000217  0.000096  0.028491     2.263
   1.04587  0.00052 -0.00343  0.28146  0.000205  0.000093  0.020352     2.207
   1.04780  0.00123 -0.00524  0.11800  0.000232  0.000104  0.007391     2.230
   1.04986  0.00223 -0.00703 -0.02810  0.000232  0.000104  0.001761     2.230
   1.05205  0.00354 -0.00879 -0.17354  0.000245  0.000110  0.010272     2.234
   1.05438  0.00514 -0.01048 -0.28719  0.000292  0.000128  0.013634     2.282
   1.05689  0.00705 -0.01212 -0.37898  0.000320  0.000142  0.016936     2.249
   1.05960  0.00924 -0.01371 -0.45818  0.000357  0.000156  0.017723     2.285
   1.06254  0.01171 -0.01530 -0.51939  0.000404  0.000175  0.017400     2.307
   1.06576  0.01450 -0.01689 -0.57616  0.000434  0.000190  0.018400     2.283
   1.06931  0.01766 -0.01852 -0.62379  0.000487  0.000209  0.017007     2.328
   1.07328  0.02125 -0.02021 -0.66941  0.000518  0.000225  0.017610     2.301
   1.07773  0.02534 -0.02197 -0.71193  0.000565  0.000243  0.016812     2.323
   1.08275  0.03002 -0.02380 -0.75340  0.000603  0.000260  0.016825     2.314
   1.08845  0.03539 -0.02569 -0.79072  0.000659  0.000282  0.015773     2.339
   1.09493  0.04158 -0.02763 -0.82506  0.000714  0.000304  0.015107     2.345
   1.10237  0.04875 -0.02960 -0.85434  0.000788  0.000332  0.013788     2.373
   1.11095  0.05710 -0.03158 -0.87768  0.000878  0.000366  0.012356     2.402
   1.12083  0.06678 -0.03358 -0.89726  0.000972  0.000402  0.011247     2.416
   1.13204  0.07781 -0.03556 -0.91545  0.001061  0.000439  0.010521     2.416
   1.14448  0.09010 -0.03747 -0.93021  0.001168  0.000480  0.009514     2.435
   1.15809  0.10359 -0.03926 -0.94219  0.001278  0.000522  0.008692     2.448
   1.17266  0.11806 -0.04096 -0.95319  0.001376  0.000562  0.008182     2.447
   1.18781  0.13314 -0.04249 -0.96426  0.001458  0.000599  0.007900     2.435
   1.20335  0.14862 -0.04385 -0.97371  0.001552  0.000636  0.007451     2.441
   1.21923  0.16445 -0.04503 -0.98103  0.001654  0.000674  0.006933     2.456
   1.23540  0.18059 -0.04604 -0.98718  0.001751  0.000710  0.006535     2.465
   1.25175  0.19691 -0.04691 -0.99338  0.001829  0.000744  0.006333     2.459
   1.26813  0.21328 -0.04763 -0.99892  0.001909  0.000776  0.006096     2.460
   1.28457  0.22971 -0.04819 -1.00354  0.001995  0.000809  0.005822     2.466
   1.30115  0.24629 -0.04860 -1.00715  0.002086  0.000842  0.005519     2.478
   1.31783  0.26296 -0.04890 -1.01058  0.002166  0.000873  0.005316     2.481
   1.33448  0.27961 -0.04908 -1.01423  0.002232  0.000902  0.005210     2.475
   1.35110  0.29624 -0.04912 -1.01698  0.002313  0.000932  0.004999     2.483
   1.36778  0.31291 -0.04903 -1.01908  0.002399  0.000962  0.004776     2.494
   1.38450  0.32963 -0.04882 -1.02096  0.002480  0.000992  0.004598     2.500
   1.40120  0.34633 -0.04849 -1.02253  0.002559  0.001021  0.004433     2.506
   1.41786  0.36298 -0.04803 -1.02347  0.002647  0.001051  0.004234     2.518
   1.43449  0.37961 -0.04745 -1.02384  0.002742  0.001082  0.004021     2.534
   1.45114  0.39623 -0.04673 -1.02353  0.002847  0.001115  0.003785     2.554
   1.46777  0.41285 -0.04588 -1.02244  0.002966  0.001149  0.003521     2.581
   1.48439  0.42943 -0.04489 -1.02074  0.003095  0.001185  0.003253     2.612
   1.50097  0.44597 -0.04378 -1.01809  0.003250  0.001224  0.002938     2.655
   1.51751  0.46247 -0.04253 -1.01465  0.003429  0.001266  0.002600     2.708
   1.53401  0.47892 -0.04112 -1.00997  0.003666  0.001314  0.002181     2.790
   1.55050  0.49532 -0.03957 -1.00442  0.003958  0.001365  0.001729     2.899
   1.56702  0.51176 -0.03785 -0.99799  0.004349  0.001422  0.001218     3.059
   1.58368  0.52831 -0.03597 -0.99138  0.004847  0.001480  0.000715     3.276
   1.60055  0.54506 -0.03395 -0.98527  0.005451  0.001534  0.000281     3.552
   1.61761  0.56199 -0.03181 -0.98002  0.006140  0.001583 -0.000036     3.879
   1.63483  0.57906 -0.02959 -0.97558  0.006905  0.001626 -0.000233     4.247
   1.65218  0.59626 -0.02732 -0.97170  0.007731  0.001665 -0.000328     4.642
   1.66962  0.61355 -0.02500 -0.96842  0.008599  0.001701 -0.000357     5.055
   1.68712  0.63090 -0.02268 -0.96569  0.009487  0.001733 -0.000355     5.475
   1.70462  0.64824 -0.02037 -0.96340  0.010380  0.001762 -0.000342     5.892
   1.72205  0.66552 -0.01809 -0.96145  0.011266  0.001787 -0.000328     6.303
   1.73939  0.68272 -0.01585 -0.95978  0.012133  0.001811 -0.000316     6.699
   1.75663  0.69982 -0.01367 -0.95830  0.012958  0.001833 -0.000306     7.069
   1.77378  0.71684 -0.01156 -0.95697  0.013729  0.001854 -0.000298     7.405
   1.79085  0.73379 -0.00953 -0.95573  0.014435  0.001874 -0.000292     7.701
   1.80784  0.75067 -0.00760 -0.95456  0.015065  0.001894 -0.000286     7.953
   1.82474  0.76746 -0.00576 -0.95344  0.015609  0.001914 -0.000281     8.154
   1.84154  0.78418 -0.00404 -0.95233  0.016052  0.001935 -0.000277     8.298
   1.85823  0.80079 -0.00245 -0.95122  0.016385  0.001955 -0.000273     8.379
   1.87481  0.81731 -0.00100 -0.95009  0.016590  0.001977 -0.000270     8.391
   1.89126  0.83371  0.00030 -0.94893  0.016651  0.002000 -0.000267     8.326
   1.90759  0.85000  0.00143 -0.94770  0.016558  0.002024 -0.000264     8.179
   1.92381  0.86619  0.00238 -0.94639  0.016292  0.002050 -0.000262     7.946
   1.93987  0.88223  0.00314 -0.94497  0.015847  0.002078 -0.000261     7.625
   1.95573  0.89808  0.00370 -0.94344  0.015199  0.002108 -0.000261     7.211
   1.97131  0.91366  0.00404 -0.94176  0.014325  0.002140 -0.000262     6.695
   1.98653  0.92887  0.00415 -0.93660  0.013198  0.002237 -0.000187     5.900
   2.00124  0.94358  0.00401 -0.91250  0.011906  0.002694 -0.000119     4.419
   2.01526  0.95760  0.00361 -0.89137  0.010446  0.003094  0.000234     3.377
   2.02837  0.97069  0.00296 -0.87984  0.008947  0.003308  0.000868     2.705
   2.04040  0.98268  0.00205 -0.87832  0.007511  0.003343  0.001676     2.247
   2.05125  0.99348  0.00090 -0.88780  0.006173  0.003215  0.002694     1.920
   2.05783  1.00000  0.00000 -0.88501  0.006064  0.003266  0.002861     1.857
   2.05783  1.00010 -0.00002  0.88501  0.039673  0.016755  0.000000     2.368
   2.06446  1.00660 -0.00133  0.88983  0.036016  0.016370  0.000000     2.200
   2.07221  1.01424 -0.00261  0.89191  0.034028  0.016212  0.000000     2.099
   2.08127  1.02320 -0.00394  0.89432  0.032110  0.016036  0.000000     2.002
   2.09186  1.03369 -0.00535  0.89720  0.030219  0.015833  0.000000     1.909
   2.10423  1.04597 -0.00686  0.90080  0.028328  0.015590  0.000000     1.817
   2.11869  1.06035 -0.00846  0.90522  0.026449  0.015305  0.000000     1.728
   2.13560  1.07717 -0.01016  0.91051  0.024608  0.014980  0.000000     1.643
   2.15535  1.09684 -0.01195  0.91663  0.022843  0.014623  0.000000     1.562
   2.17845  1.11986 -0.01384  0.92342  0.021187  0.014247  0.000000     1.487
   2.20544  1.14677 -0.01581  0.93064  0.019671  0.013869  0.000000     1.418
   2.23698  1.17825 -0.01785  0.93803  0.018310  0.013503  0.000000     1.356
   2.27386  1.21507 -0.01992  0.94530  0.017112  0.013160  0.000000     1.300
   2.31695  1.25811 -0.02200  0.95226  0.016071  0.012848  0.000000     1.251
   2.36732  1.30844 -0.02403  0.95874  0.015177  0.012570  0.000000     1.207
   2.42619  1.36728 -0.02595  0.96467  0.014416  0.012325  0.000000     1.170
   2.49501  1.43607 -0.02770  0.97002  0.013776  0.012112  0.000000     1.137
   2.57543  1.51649 -0.02917  0.97478  0.013243  0.011929  0.000000     1.110
   2.66944  1.61048 -0.03023  0.97896  0.012804  0.011772  0.000000     1.088
   2.77931  1.72035 -0.03075  0.98259  0.012447  0.011638  0.000000     1.069
   2.90773  1.84877 -0.03055  0.98569  0.012159  0.011526  0.000000     1.055
   3.05782  1.99886 -0.02941  0.98891  0.011908  0.011412  0.000000     1.043
