#    s        x        y     Ue/Vinf    Dstar     Theta      Cf       H
   0.00000  1.00000  0.00000  1.08340  0.123733  0.002277 -0.000258    54.336
   0.00668  0.99360  0.00192  1.08320  0.120251  0.002302 -0.000654    52.227
   0.01807  0.98272  0.00530  1.08312  0.117059  0.002314 -0.000651    50.580
   0.03106  0.97032  0.00914  1.08305  0.113588  0.002326 -0.000648    48.827
   0.04516  0.95680  0.01317  1.08298  0.110034  0.002337 -0.000645    47.076
   0.06006  0.94246  0.01720  1.08293  0.106497  0.002347 -0.000643    45.376
   0.07565  0.92739  0.02118  1.08289  0.103001  0.002355 -0.000641    43.736
   0.09186  0.91167  0.02516  1.08286  0.099501  0.002362 -0.000639    42.120
   0.10852  0.89549  0.02915  1.08283  0.095947  0.002370 -0.000638    40.490
   0.12544  0.87905  0.03313  1.08280  0.092354  0.002377 -0.000636    38.847
   0.14250  0.86245  0.03708  1.08276  0.088731  0.002386 -0.000634    37.195
   0.15964  0.84577  0.04099  1.08271  0.085089  0.002394 -0.000633    35.539
   0.17681  0.82904  0.04484  1.08265  0.081432  0.002403 -0.000631    33.881
   0.19398  0.81229  0.04864  1.08259  0.077769  0.002413 -0.000629    32.228
   0.21115  0.79553  0.05238  1.08251  0.074106  0.002423 -0.000627    30.584
   0.22833  0.77875  0.05606  1.08243  0.070434  0.002433 -0.000625    28.944
   0.24546  0.76200  0.05967  1.08234  0.066766  0.002444 -0.000623    27.316
   0.26249  0.74535  0.06319  1.08224  0.063125  0.002455 -0.000621    25.712
   0.27941  0.72877  0.06660  1.08214  0.059541  0.002466 -0.000620    24.148
   0.29629  0.71222  0.06990  1.08205  0.056011  0.002476 -0.000619    22.624
   0.31313  0.69568  0.07308  1.08195  0.052537  0.002485 -0.000618    21.139
   0.32994  0.67915  0.07616  1.08187  0.049136  0.002494 -0.000617    19.703
   0.34670  0.66266  0.07911  1.08181  0.045798  0.002502 -0.000617    18.308
   0.36339  0.64620  0.08193  1.08177  0.042551  0.002508 -0.000618    16.967
   0.38005  0.62976  0.08462  1.08176  0.039398  0.002512 -0.000620    15.681
   0.39672  0.61329  0.08718  1.08181  0.036342  0.002515 -0.000622    14.451
   0.41338  0.59681  0.08962  1.08192  0.033376  0.002515 -0.000626    13.270
   0.42997  0.58038  0.09191  1.08212  0.030511  0.002513 -0.000632    12.141
   0.44649  0.56400  0.09406  1.08244  0.027776  0.002507 -0.000639    11.078
   0.46301  0.54760  0.09605  1.08292  0.025169  0.002498 -0.000649    10.077
   0.47954  0.53117  0.09790  1.08362  0.022684  0.002484 -0.000663     9.133
   0.49603  0.51477  0.09961  1.08459  0.020327  0.002465 -0.000681     8.247
   0.51242  0.49845  0.10115  1.08591  0.018116  0.002440 -0.000707     7.424
   0.52875  0.48218  0.10252  1.08771  0.016093  0.002409 -0.000741     6.680
   0.54509  0.46588  0.10371  1.09011  0.014223  0.002370 -0.000786     6.000
   0.56144  0.44957  0.10475  1.09328  0.012511  0.002323 -0.000823     5.385
   0.57774  0.43329  0.10561  1.09739  0.010972  0.002268 -0.000803     4.838
   0.59394  0.41711  0.10630  1.10254  0.009619  0.002204 -0.000627     4.365
   0.61007  0.40098  0.10679  1.10865  0.008444  0.002133 -0.000212     3.960
   0.62617  0.38489  0.10708  1.11583  0.007445  0.002054  0.000459     3.625
   0.64227  0.36879  0.10718  1.12408  0.006616  0.001967  0.001324     3.364
   0.65836  0.35270  0.10708  1.13302  0.005920  0.001875  0.002346     3.157
   0.67432  0.33674  0.10680  1.14223  0.005317  0.001782  0.003547     2.983
   0.69010  0.32097  0.10629  1.15069  0.004846  0.001695  0.004706     2.860
   0.70583  0.30526  0.10554  1.15805  0.004469  0.001613  0.005788     2.771
   0.72167  0.28945  0.10454  1.16410  0.004167  0.001537  0.006733     2.711
   0.73747  0.27369  0.10335  1.16952  0.003870  0.001462  0.007873     2.647
   0.75302  0.25820  0.10195  1.17378  0.003586  0.001390  0.009212     2.580
   0.76841  0.24291  0.10027  1.17522  0.003378  0.001328  0.010199     2.543
   0.78386  0.22758  0.09831  1.17457  0.003218  0.001273  0.010876     2.528
   0.79934  0.21226  0.09610  1.17339  0.003040  0.001215  0.011818     2.503
   0.81467  0.19713  0.09366  1.17056  0.002876  0.001159  0.012754     2.481
   0.82983  0.18221  0.09095  1.16596  0.002726  0.001106  0.013634     2.465
   0.84493  0.16741  0.08797  1.15955  0.002589  0.001054  0.014410     2.456
   0.85995  0.15275  0.08473  1.15155  0.002466  0.001003  0.014978     2.459
   0.87475  0.13836  0.08125  1.14324  0.002319  0.000947  0.016007     2.447
   0.88915  0.12444  0.07757  1.13322  0.002147  0.000890  0.017746     2.413
   0.90314  0.11101  0.07364  1.11814  0.002025  0.000840  0.018614     2.410
   0.91683  0.09797  0.06946  1.10118  0.001914  0.000790  0.019179     2.422
   0.92993  0.08560  0.06517  1.08408  0.001774  0.000734  0.020464     2.417
   0.94206  0.07425  0.06087  1.06401  0.001594  0.000676  0.023711     2.358
   0.95332  0.06387  0.05649  1.03372  0.001498  0.000635  0.024472     2.359
   0.96371  0.05444  0.05215  1.00294  0.001417  0.000594  0.024433     2.386
   0.97301  0.04611  0.04801  0.97455  0.001292  0.000545  0.026390     2.373
   0.98119  0.03891  0.04412  0.94223  0.001179  0.000500  0.028323     2.359
   0.98837  0.03273  0.04046  0.90555  0.001075  0.000459  0.030387     2.341
   0.99470  0.02743  0.03701  0.86375  0.000987  0.000424  0.031913     2.330
   1.00030  0.02288  0.03375  0.81718  0.000905  0.000392  0.033495     2.312
   1.00527  0.01898  0.03066  0.76630  0.000843  0.000363  0.033420     2.321
   1.00973  0.01561  0.02774  0.71191  0.000764  0.000333  0.035253     2.291
   1.01375  0.01272  0.02495  0.64770  0.000709  0.000311  0.034935     2.279
   1.01739  0.01024  0.02228  0.57724  0.000663  0.000293  0.033765     2.265
   1.02073  0.00811  0.01971  0.50172  0.000626  0.000276  0.031080     2.264
   1.02380  0.00630  0.01724  0.42656  0.000577  0.000250  0.027524     2.307
   1.02664  0.00476  0.01485  0.33072  0.000510  0.000236  0.027463     2.165
   1.02926  0.00350  0.01255  0.23231  0.000567  0.000245  0.015156     2.314
   1.03171  0.00246  0.01033  0.14251  0.000445  0.000200  0.012828     2.227
   1.03400  0.00163  0.00819  0.02271  0.000457  0.000205  0.001988     2.230
   1.03618  0.00098  0.00612 -0.08695  0.000457  0.000205  0.007609     2.230
   1.03826  0.00048  0.00410 -0.20637  0.000416  0.000188  0.020159     2.212
   1.04024  0.00015  0.00214 -0.35269  0.000370  0.000168  0.038999     2.205
   1.04215  0.00001  0.00024 -0.50871  0.000360  0.000161  0.056518     2.230
   1.04400  0.00012 -0.00161 -0.67295  0.000344  0.000156  0.079766     2.209
   1.04587  0.00052 -0.00343 -0.82894  0.000358  0.000159  0.090481     2.256
   1.04780  0.00123 -0.00524 -0.95465  0.000392  0.000171  0.092586     2.287
   1.04986  0.00223 -0.00703 -1.05398  0.000435  0.000188  0.090127     2.310
   1.05205  0.00354 -0.00879 -1.12910  0.000489  0.000209  0.083341     2.341
   1.05438  0.00514 -0.01048 -1.18122  0.000557  0.000234  0.073689     2.380
   1.05689  0.00705 -0.01212 -1.20755  0.000659  0.000268  0.058728     2.460
   1.05960  0.00924 -0.01371 -1.21744  0.000771  0.000306  0.047621     2.518
   1.06254  0.01171 -0.01530 -1.22503  0.000858  0.000342  0.043352     2.511
   1.06576  0.01450 -0.01689 -1.23186  0.000946  0.000377  0.039532     2.511
   1.06931  0.01766 -0.01852 -1.23412  0.001061  0.000416  0.033913     2.548
   1.07328  0.02125 -0.02021 -1.24077  0.001126  0.000450  0.033739     2.503
   1.07773  0.02534 -0.02197 -1.24539  0.001230  0.000488  0.030472     2.519
   1.08275  0.03002 -0.02380 -1.25152  0.001314  0.000525  0.029127     2.504
   1.08845  0.03539 -0.02569 -1.25680  0.001419  0.000565  0.026925     2.510
   1.09493  0.04158 -0.02763 -1.26101  0.001535  0.000609  0.024697     2.520
   1.10237  0.04875 -0.02960 -1.26215  0.001686  0.000661  0.021738     2.552
   1.11095  0.05710 -0.03158 -1.25870  0.001886  0.000723  0.018213     2.607
   1.12083  0.06678 -0.03358 -1.25202  0.002111  0.000794  0.015258     2.657
   1.13204  0.07781 -0.03556 -1.24612  0.002299  0.000865  0.013932     2.658
   1.14448  0.09010 -0.03747 -1.23891  0.002528  0.000942  0.012223     2.683
   1.15809  0.10359 -0.03926 -1.23141  0.002759  0.001021  0.010895     2.701
   1.17266  0.11806 -0.04096 -1.22494  0.002963  0.001098  0.010133     2.697
   1.18781  0.13314 -0.04249 -1.22006  0.003135  0.001170  0.009748     2.680
   1.20335  0.14862 -0.04385 -1.21585  0.003310  0.001239  0.009295     2.671
   1.21923  0.16445 -0.04503 -1.21178  0.003495  0.001308  0.008763     2.672
   1.23540  0.18059 -0.04604 -1.20766  0.003687  0.001376  0.008204     2.680
   1.25175  0.19691 -0.04691 -1.20488  0.003827  0.001437  0.008038     2.664
   1.26813  0.21328 -0.04763 -1.20224  0.003979  0.001497  0.007761     2.659
   1.28457  0.22971 -0.04819 -1.19966  0.004135  0.001555  0.007452     2.659
   1.30115  0.24629 -0.04860 -1.19709  0.004294  0.001613  0.007132     2.662
   1.31783  0.26296 -0.04890 -1.19458  0.004451  0.001670  0.006837     2.665
   1.33448  0.27961 -0.04908 -1.19261  0.004581  0.001722  0.006676     2.660
   1.35110  0.29624 -0.04912 -1.19048  0.004727  0.001775  0.006439     2.662
   1.36778  0.31291 -0.04903 -1.18796  0.004895  0.001830  0.006115     2.675
   1.38450  0.32963 -0.04882 -1.18567  0.005045  0.001883  0.005885     2.680
   1.40120  0.34633 -0.04849 -1.18316  0.005208  0.001936  0.005615     2.690
   1.41786  0.36298 -0.04803 -1.18042  0.005384  0.001990  0.005317     2.706
   1.43449  0.37961 -0.04745 -1.17732  0.005581  0.002046  0.004974     2.728
   1.45114  0.39623 -0.04673 -1.17382  0.005802  0.002104  0.004592     2.758
   1.46777  0.41285 -0.04588 -1.16992  0.006051  0.002164  0.004178     2.796
   1.48439  0.42943 -0.04489 -1.16564  0.006330  0.002227  0.003737     2.842
   1.50097  0.44597 -0.04378 -1.16098  0.006649  0.002292  0.003267     2.900
   1.51751  0.46247 -0.04253 -1.15583  0.007033  0.002362  0.002738     2.978
   1.53401  0.47892 -0.04112 -1.15037  0.007489  0.002434  0.002176     3.077
   1.55050  0.49532 -0.03957 -1.14475  0.008033  0.002508  0.001598     3.203
   1.56702  0.51176 -0.03785 -1.13915  0.008687  0.002582  0.001022     3.364
   1.58368  0.52831 -0.03597 -1.13384  0.009461  0.002654  0.000487     3.565
   1.60055  0.54506 -0.03395 -1.12903  0.010321  0.002720  0.000057     3.794
   1.61761  0.56199 -0.03181 -1.12475  0.011249  0.002782 -0.000256     4.044
   1.63483  0.57906 -0.02959 -1.12087  0.012221  0.002839 -0.000459     4.305
   1.65218  0.59626 -0.02732 -1.11732  0.013216  0.002894 -0.000573     4.567
   1.66962  0.61355 -0.02500 -1.11414  0.014216  0.002945 -0.000626     4.826
   1.68712  0.63090 -0.02268 -1.11129  0.015193  0.002994 -0.000641     5.075
   1.70462  0.64824 -0.02037 -1.10872  0.016139  0.003039 -0.000638     5.310
   1.72205  0.66552 -0.01809 -1.10640  0.017040  0.003083 -0.000628     5.528
   1.73939  0.68272 -0.01585 -1.10427  0.017888  0.003124 -0.000614     5.726
   1.75663  0.69982 -0.01367 -1.10230  0.018663  0.003163 -0.000599     5.900
   1.77378  0.71684 -0.01156 -1.10044  0.019352  0.003202 -0.000585     6.044
   1.79085  0.73379 -0.00953 -1.09866  0.019948  0.003240 -0.000573     6.157
   1.80784  0.75067 -0.00760 -1.09695  0.020445  0.003278 -0.000563     6.238
   1.82474  0.76746 -0.00576 -1.09527  0.020831  0.003315 -0.000554     6.283
   1.84154  0.78418 -0.00404 -1.09362  0.021097  0.003353 -0.000547     6.291
   1.85823  0.80079 -0.00245 -1.09196  0.021234  0.003392 -0.000541     6.260
   1.87481  0.81731 -0.00100 -1.09030  0.021231  0.003431 -0.000536     6.188
   1.89126  0.83371  0.00030 -1.08860  0.021074  0.003471 -0.000533     6.072
   1.90759  0.85000  0.00143 -1.08686  0.020756  0.003512 -0.000532     5.910
   1.92381  0.86619  0.00238 -1.08506  0.020269  0.003554 -0.000531     5.703
   1.93987  0.88223  0.00314 -1.08319  0.019613  0.003597 -0.000527     5.453
   1.95573  0.89808  0.00370 -1.08128  0.018783  0.003640 -0.000516     5.160
   1.97131  0.91366  0.00404 -1.07932  0.017778  0.003683 -0.000485     4.827
   1.98653  0.92887  0.00415 -1.07739  0.016596  0.003724 -0.000396     4.456
   2.00124  0.94358  0.00401 -1.07556  0.015257  0.003762 -0.000189     4.056
   2.01526  0.95760  0.00361 -1.07427  0.013798  0.003789  0.000218     3.642
   2.02837  0.97069  0.00296 -1.07486  0.012260  0.003780  0.000906     3.243
   2.04040  0.98268  0.00205 -1.07901  0.010712  0.003714  0.001930     2.884
   2.05125  0.99348  0.00090 -1.08801  0.009240  0.003583  0.003318     2.579
   2.05783  1.00000  0.00000 -1.08340  0.009881  0.003663  0.002687     2.698
   2.05783  1.00010 -0.00002  1.08340  0.133614  0.005940  0.000000    22.494
   2.06446  1.00660 -0.00133  1.08020  0.128028  0.006364  0.000000    20.118
   2.07221  1.01424 -0.00263  1.07664  0.125361  0.006826  0.000000    18.364
   2.08127  1.02319 -0.00401  1.07235  0.122689  0.007379  0.000000    16.627
   2.09186  1.03367 -0.00548  1.06716  0.119847  0.008042  0.000000    14.903
   2.10423  1.04595 -0.00706  1.06087  0.116661  0.008843  0.000000    13.193
   2.11869  1.06031 -0.00876  1.05325  0.112985  0.009807  0.000000    11.521
   2.13560  1.07711 -0.01060  1.04402  0.108672  0.010969  0.000000     9.908
   2.15535  1.09677 -0.01259  1.03264  0.103568  0.012392  0.000000     8.358
   2.17845  1.11976 -0.01472  1.01847  0.097496  0.014154  0.000000     6.888
   2.20544  1.14665 -0.01700  1.00050  0.090273  0.016377  0.000000     5.512
   2.23698  1.17811 -0.01944  0.97672  0.081785  0.019321  0.000000     4.233
   2.27386  1.21489 -0.02203  0.94721  0.071975  0.022999  0.000000     3.130
   2.31695  1.25790 -0.02476  0.92672  0.061055  0.025523  0.000000     2.392
   2.36732  1.30819 -0.02762  0.91864  0.050353  0.026466  0.000000     1.903
   2.42619  1.36698 -0.03059  0.92266  0.041255  0.026037  0.000000     1.584
   2.49501  1.43573 -0.03365  0.93413  0.034451  0.024941  0.000000     1.381
   2.57543  1.51609 -0.03675  0.94751  0.029770  0.023793  0.000000     1.251
   2.66944  1.61005 -0.03985  0.95953  0.026654  0.022850  0.000000     1.167
   2.77931  1.71988 -0.04289  0.96925  0.024588  0.022138  0.000000     1.111
   2.90773  1.84826 -0.04579  0.97678  0.023210  0.021615  0.000000     1.074
   3.05782  1.99833 -0.04848  0.98490  0.022112  0.021074  0.000000     1.049
