#    s        x        y     Ue/Vinf    Dstar     Theta      Cf       H
   0.00000  1.00000  0.00000  1.07909  0.114882  0.002360 -0.000256    48.680
   0.00668  0.99360  0.00192  1.07886  0.111351  0.002387 -0.000629    46.652
   0.01807  0.98272  0.00530  1.07877  0.108260  0.002399 -0.000626    45.125
   0.03106  0.97032  0.00914  1.07869  0.104922  0.002411 -0.000624    43.512
   0.04516  0.95680  0.01317  1.07861  0.101523  0.002422 -0.000621    41.910
   0.06006  0.94246  0.01720  1.07856  0.098153  0.002432 -0.000619    40.360
   0.07565  0.92739  0.02118  1.07852  0.094835  0.002440 -0.000617    38.869
   0.09186  0.91167  0.02516  1.07849  0.091518  0.002447 -0.000616    37.403
   0.10852  0.89549  0.02915  1.07846  0.088153  0.002454 -0.000615    35.924
   0.12544  0.87905  0.03313  1.07842  0.084751  0.002461 -0.000613    34.436
   0.14250  0.86245  0.03708  1.07839  0.081321  0.002469 -0.000612    32.940
   0.15964  0.84577  0.04099  1.07834  0.077873  0.002477 -0.000611    31.441
   0.17681  0.82904  0.04484  1.07829  0.074413  0.002485 -0.000609    29.943
   0.19398  0.81229  0.04864  1.07823  0.070948  0.002494 -0.000608    28.448
   0.21115  0.79553  0.05238  1.07816  0.067483  0.002503 -0.000606    26.962
   0.22833  0.77875  0.05606  1.07809  0.064014  0.002512 -0.000605    25.483
   0.24546  0.76200  0.05967  1.07801  0.060548  0.002521 -0.000604    24.014
   0.26249  0.74535  0.06319  1.07793  0.057111  0.002531 -0.000603    22.567
   0.27941  0.72877  0.06660  1.07785  0.053731  0.002540 -0.000602    21.158
   0.29629  0.71222  0.06990  1.07778  0.050411  0.002548 -0.000602    19.788
   0.31313  0.69568  0.07308  1.07773  0.047146  0.002555 -0.000602    18.454
   0.32994  0.67915  0.07616  1.07769  0.043958  0.002561 -0.000603    17.165
   0.34670  0.66266  0.07911  1.07768  0.040834  0.002566 -0.000604    15.916
   0.36339  0.64620  0.08193  1.07772  0.037810  0.002568 -0.000606    14.721
   0.38005  0.62976  0.08462  1.07781  0.034874  0.002569 -0.000610    13.573
   0.39672  0.61329  0.08718  1.07798  0.032043  0.002568 -0.000614    12.480
   0.41338  0.59681  0.08962  1.07825  0.029308  0.002563 -0.000621    11.436
   0.42997  0.58038  0.09191  1.07865  0.026675  0.002555 -0.000629    10.440
   0.44649  0.56400  0.09406  1.07923  0.024182  0.002543 -0.000641     9.509
   0.46301  0.54760  0.09605  1.08005  0.021816  0.002527 -0.000656     8.634
   0.47954  0.53117  0.09790  1.08116  0.019583  0.002505 -0.000676     7.818
   0.49603  0.51477  0.09961  1.08265  0.017472  0.002477 -0.000704     7.053
   0.51242  0.49845  0.10115  1.08463  0.015526  0.002443 -0.000742     6.355
   0.52875  0.48218  0.10252  1.08723  0.013749  0.002402 -0.000786     5.725
   0.54509  0.46588  0.10371  1.09063  0.012152  0.002352 -0.000806     5.166
   0.56144  0.44957  0.10475  1.09495  0.010702  0.002294 -0.000746     4.665
   0.57774  0.43329  0.10561  1.10026  0.009419  0.002228 -0.000510     4.228
   0.59394  0.41711  0.10630  1.10645  0.008301  0.002156 -0.000033     3.851
   0.61007  0.40098  0.10679  1.11365  0.007367  0.002076  0.000655     3.549
   0.62617  0.38489  0.10708  1.12179  0.006576  0.001988  0.001528     3.307
   0.64227  0.36879  0.10718  1.13041  0.005925  0.001898  0.002498     3.121
   0.65836  0.35270  0.10708  1.13901  0.005385  0.001809  0.003524     2.977
   0.67432  0.33674  0.10680  1.14730  0.004913  0.001721  0.004655     2.855
   0.69010  0.32097  0.10629  1.15473  0.004513  0.001638  0.005830     2.755
   0.70583  0.30526  0.10554  1.16036  0.004216  0.001564  0.006758     2.696
   0.72167  0.28945  0.10454  1.16479  0.003966  0.001495  0.007588     2.653
   0.73747  0.27369  0.10335  1.16872  0.003707  0.001425  0.008654     2.602
   0.75302  0.25820  0.10195  1.17149  0.003454  0.001357  0.009926     2.545
   0.76841  0.24291  0.10027  1.17140  0.003268  0.001299  0.010831     2.515
   0.78386  0.22758  0.09831  1.16928  0.003125  0.001247  0.011422     2.506
   0.79934  0.21226  0.09610  1.16687  0.002955  0.001191  0.012377     2.481
   0.81467  0.19713  0.09366  1.16258  0.002800  0.001138  0.013287     2.461
   0.82983  0.18221  0.09095  1.15639  0.002661  0.001087  0.014091     2.448
   0.84493  0.16741  0.08797  1.14837  0.002539  0.001038  0.014691     2.447
   0.85995  0.15275  0.08473  1.13949  0.002407  0.000986  0.015470     2.441
   0.87475  0.13836  0.08125  1.12924  0.002269  0.000933  0.016408     2.432
   0.88915  0.12444  0.07757  1.11723  0.002115  0.000878  0.017841     2.408
   0.90314  0.11101  0.07364  1.10121  0.001984  0.000828  0.018977     2.396
   0.91683  0.09797  0.06946  1.08203  0.001882  0.000780  0.019316     2.413
   0.92993  0.08560  0.06517  1.06325  0.001738  0.000724  0.020807     2.401
   0.94206  0.07425  0.06087  1.04024  0.001569  0.000668  0.023779     2.347
   0.95332  0.06387  0.05649  1.00790  0.001487  0.000629  0.023946     2.363
   0.96371  0.05444  0.05215  0.97647  0.001386  0.000585  0.024746     2.369
   0.97301  0.04611  0.04801  0.94440  0.001273  0.000538  0.026149     2.365
   0.98119  0.03891  0.04412  0.90986  0.001163  0.000494  0.027845     2.355
   0.98837  0.03273  0.04046  0.87038  0.001052  0.000453  0.030421     2.322
   0.99470  0.02743  0.03701  0.82482  0.000983  0.000421  0.030378     2.337
   1.00030  0.02288  0.03375  0.77735  0.000886  0.000386  0.032957     2.298
   1.00527  0.01898  0.03066  0.72203  0.000832  0.000360  0.032188     2.312
   1.00973  0.01561  0.02774  0.66415  0.000756  0.000331  0.033524     2.282
   1.01375  0.01272  0.02495  0.59730  0.000706  0.000310  0.032403     2.277
   1.01739  0.01024  0.02228  0.52594  0.000657  0.000290  0.030913     2.268
   1.02073  0.00811  0.01971  0.44925  0.000612  0.000270  0.028289     2.270
   1.02380  0.00630  0.01724  0.36465  0.000562  0.000250  0.025480     2.250
   1.02664  0.00476  0.01485  0.26808  0.000541  0.000244  0.020111     2.213
   1.02926  0.00350  0.01255  0.17497  0.000533  0.000235  0.012647     2.270
   1.03171  0.00246  0.01033  0.07301  0.000441  0.000198  0.006613     2.230
   1.03400  0.00163  0.00819 -0.05111  0.000441  0.000198  0.004637     2.230
   1.03618  0.00098  0.00612 -0.15899  0.000471  0.000210  0.013381     2.240
   1.03826  0.00048  0.00410 -0.27995  0.000411  0.000188  0.028237     2.189
   1.04024  0.00015  0.00214 -0.43173  0.000368  0.000167  0.047812     2.209
   1.04215  0.00001  0.00024 -0.59981  0.000345  0.000156  0.070650     2.211
   1.04400  0.00012 -0.00161 -0.76162  0.000350  0.000156  0.085961     2.242
   1.04587  0.00052 -0.00343 -0.91741  0.000353  0.000158  0.103793     2.233
   1.04780  0.00123 -0.00524 -1.03820  0.000400  0.000172  0.095968     2.317
   1.04986  0.00223 -0.00703 -1.13147  0.000437  0.000189  0.096330     2.308
   1.05205  0.00354 -0.00879 -1.20981  0.000483  0.000207  0.091493     2.329
   1.05438  0.00514 -0.01048 -1.25241  0.000575  0.000237  0.072061     2.429
   1.05689  0.00705 -0.01212 -1.27334  0.000667  0.000270  0.060402     2.472
   1.05960  0.00924 -0.01371 -1.27755  0.000793  0.000310  0.046590     2.556
   1.06254  0.01171 -0.01530 -1.28022  0.000883  0.000347  0.042329     2.547
   1.06576  0.01450 -0.01689 -1.28382  0.000969  0.000382  0.039140     2.536
   1.06931  0.01766 -0.01852 -1.28284  0.001089  0.000422  0.033186     2.579
   1.07328  0.02125 -0.02021 -1.28532  0.001165  0.000458  0.032314     2.544
   1.07773  0.02534 -0.02197 -1.28697  0.001267  0.000497  0.029563     2.550
   1.08275  0.03002 -0.02380 -1.29025  0.001354  0.000534  0.028247     2.533
   1.08845  0.03539 -0.02569 -1.29298  0.001460  0.000576  0.026154     2.537
   1.09493  0.04158 -0.02763 -1.29442  0.001583  0.000621  0.023797     2.550
   1.10237  0.04875 -0.02960 -1.29293  0.001741  0.000674  0.020826     2.583
   1.11095  0.05710 -0.03158 -1.28674  0.001954  0.000738  0.017169     2.646
   1.12083  0.06678 -0.03358 -1.27838  0.002177  0.000809  0.014526     2.690
   1.13204  0.07781 -0.03556 -1.27027  0.002381  0.000882  0.013036     2.700
   1.14448  0.09010 -0.03747 -1.26079  0.002628  0.000962  0.011259     2.732
   1.15809  0.10359 -0.03926 -1.25153  0.002865  0.001043  0.010050     2.748
   1.17266  0.11806 -0.04096 -1.24315  0.003085  0.001122  0.009254     2.749
   1.18781  0.13314 -0.04249 -1.23686  0.003256  0.001195  0.009000     2.725
   1.20335  0.14862 -0.04385 -1.23111  0.003443  0.001267  0.008540     2.718
   1.21923  0.16445 -0.04503 -1.22588  0.003630  0.001337  0.008094     2.715
   1.23540  0.18059 -0.04604 -1.22043  0.003840  0.001408  0.007500     2.728
   1.25175  0.19691 -0.04691 -1.21657  0.003983  0.001470  0.007377     2.709
   1.26813  0.21328 -0.04763 -1.21279  0.004146  0.001532  0.007097     2.706
   1.28457  0.22971 -0.04819 -1.20935  0.004304  0.001592  0.006841     2.703
   1.30115  0.24629 -0.04860 -1.20583  0.004475  0.001652  0.006519     2.708
   1.31783  0.26296 -0.04890 -1.20229  0.004651  0.001712  0.006191     2.716
   1.33448  0.27961 -0.04908 -1.19955  0.004783  0.001766  0.006067     2.708
   1.35110  0.29624 -0.04912 -1.19641  0.004951  0.001823  0.005788     2.716
   1.36778  0.31291 -0.04903 -1.19313  0.005129  0.001880  0.005486     2.728
   1.38450  0.32963 -0.04882 -1.18987  0.005305  0.001936  0.005211     2.740
   1.40120  0.34633 -0.04849 -1.18655  0.005486  0.001992  0.004940     2.754
   1.41786  0.36298 -0.04803 -1.18296  0.005687  0.002050  0.004621     2.775
   1.43449  0.37961 -0.04745 -1.17897  0.005920  0.002110  0.004245     2.806
   1.45114  0.39623 -0.04673 -1.17475  0.006172  0.002171  0.003861     2.843
   1.46777  0.41285 -0.04588 -1.17003  0.006475  0.002236  0.003403     2.896
   1.48439  0.42943 -0.04489 -1.16504  0.006812  0.002303  0.002938     2.958
   1.50097  0.44597 -0.04378 -1.15974  0.007207  0.002373  0.002437     3.037
   1.51751  0.46247 -0.04253 -1.15424  0.007670  0.002445  0.001913     3.138
   1.53401  0.47892 -0.04112 -1.14863  0.008224  0.002517  0.001371     3.267
   1.55050  0.49532 -0.03957 -1.14314  0.008892  0.002590  0.000828     3.433
   1.56702  0.51176 -0.03785 -1.13801  0.009672  0.002659  0.000337     3.638
   1.58368  0.52831 -0.03597 -1.13338  0.010588  0.002723 -0.000079     3.889
   1.60055  0.54506 -0.03395 -1.12927  0.011599  0.002781 -0.000373     4.170
   1.61761  0.56199 -0.03181 -1.12554  0.012688  0.002837 -0.000550     4.472
   1.63483  0.57906 -0.02959 -1.12222  0.013817  0.002889 -0.000634     4.783
   1.65218  0.59626 -0.02732 -1.11932  0.014977  0.002937 -0.000660     5.100
   1.66962  0.61355 -0.02500 -1.11677  0.016139  0.002981 -0.000655     5.414
   1.68712  0.63090 -0.02268 -1.11452  0.017285  0.003022 -0.000641     5.719
   1.70462  0.64824 -0.02037 -1.11251  0.018389  0.003061 -0.000621     6.007
   1.72205  0.66552 -0.01809 -1.11070  0.019446  0.003097 -0.000602     6.278
   1.73939  0.68272 -0.01585 -1.10905  0.020446  0.003132 -0.000586     6.528
   1.75663  0.69982 -0.01367 -1.10752  0.021361  0.003166 -0.000572     6.748
   1.77378  0.71684 -0.01156 -1.10607  0.022191  0.003199 -0.000560     6.938
   1.79085  0.73379 -0.00953 -1.10469  0.022918  0.003231 -0.000550     7.093
   1.80784  0.75067 -0.00760 -1.10334  0.023540  0.003264 -0.000541     7.213
   1.82474  0.76746 -0.00576 -1.10201  0.024043  0.003296 -0.000533     7.294
   1.84154  0.78418 -0.00404 -1.10070  0.024420  0.003329 -0.000527     7.334
   1.85823  0.80079 -0.00245 -1.09937  0.024658  0.003363 -0.000521     7.331
   1.87481  0.81731 -0.00100 -1.09803  0.024748  0.003398 -0.000516     7.282
   1.89126  0.83371  0.00030 -1.09665  0.024675  0.003435 -0.000512     7.184
   1.90759  0.85000  0.00143 -1.09522  0.024431  0.003472 -0.000509     7.037
   1.92381  0.86619  0.00238 -1.09373  0.024005  0.003511 -0.000507     6.837
   1.93987  0.88223  0.00314 -1.09217  0.023401  0.003552 -0.000507     6.589
   1.95573  0.89808  0.00370 -1.09053  0.022607  0.003594 -0.000509     6.291
   1.97131  0.91366  0.00404 -1.08881  0.021623  0.003637 -0.000513     5.946
   1.98653  0.92887  0.00415 -1.08702  0.020445  0.003680 -0.000517     5.556
   2.00124  0.94358  0.00401 -1.08519  0.019088  0.003723 -0.000506     5.128
   2.01526  0.95760  0.00361 -1.08340  0.017588  0.003762 -0.000452     4.675
   2.02837  0.97069  0.00296 -1.08178  0.015992  0.003797 -0.000285     4.212
   2.04040  0.98268  0.00205 -1.08053  0.014380  0.003822  0.000075     3.762
   2.05125  0.99348  0.00090 -1.08068  0.012866  0.003821  0.000652     3.367
   2.05783  1.00000  0.00000 -1.07909  0.013565  0.003853  0.000387     3.520
   2.05783  1.00010 -0.00002  1.07909  0.128447  0.006213  0.000000    20.673
   2.06446  1.00660 -0.00133  1.07520  0.122522  0.006714  0.000000    18.250
   2.07221  1.01423 -0.00264  1.07085  0.119680  0.007262  0.000000    16.480
   2.08127  1.02319 -0.00403  1.06564  0.116823  0.007913  0.000000    14.763
   2.09186  1.03367 -0.00551  1.05939  0.113778  0.008690  0.000000    13.093
   2.10423  1.04594 -0.00712  1.05187  0.110360  0.009620  0.000000    11.471
   2.11869  1.06030 -0.00885  1.04289  0.106411  0.010727  0.000000     9.920
   2.13560  1.07709 -0.01073  1.03193  0.101792  0.012072  0.000000     8.432
   2.15535  1.09675 -0.01277  1.01842  0.096343  0.013722  0.000000     7.021
   2.17845  1.11973 -0.01497  1.00153  0.089900  0.015780  0.000000     5.697
   2.20544  1.14662 -0.01735  0.97967  0.082339  0.018449  0.000000     4.463
   2.23698  1.17806 -0.01990  0.95099  0.073631  0.021988  0.000000     3.349
   2.27386  1.21483 -0.02264  0.92834  0.063669  0.024778  0.000000     2.570
   2.31695  1.25783 -0.02556  0.91624  0.053388  0.026217  0.000000     2.036
   2.36732  1.30810 -0.02865  0.91611  0.044046  0.026232  0.000000     1.679
   2.42619  1.36688 -0.03193  0.92525  0.036590  0.025321  0.000000     1.445
   2.49501  1.43561 -0.03536  0.93850  0.031217  0.024136  0.000000     1.293
   2.57543  1.51596 -0.03893  0.95166  0.027554  0.023071  0.000000     1.194
   2.66944  1.60989 -0.04261  0.96284  0.025101  0.022235  0.000000     1.129
   2.77931  1.71970 -0.04638  0.97173  0.023458  0.021609  0.000000     1.086
   2.90773  1.84806 -0.05018  0.97861  0.022353  0.021146  0.000000     1.057
   3.05782  1.99811 -0.05397  0.98577  0.021472  0.020681  0.000000     1.038
