#    s        x        y     Ue/Vinf    Dstar     Theta      Cf       H
   0.00000  1.00000  0.00000  1.11659  0.163063  0.006404 -0.000246    25.461
   0.00668  0.99360  0.00192  1.11936  0.159336  0.005974 -0.000264    26.673
   0.01807  0.98272  0.00530  1.12482  0.155422  0.005153 -0.000278    30.159
   0.03106  0.97032  0.00914  1.13215  0.151019  0.004092 -0.000282    36.902
   0.04516  0.95680  0.01317  1.14288  0.146143  0.002586 -0.000287    56.506
   0.06006  0.94246  0.01720  1.14726  0.142049  0.002020 -0.000787    70.312
   0.07565  0.92739  0.02118  1.14729  0.138434  0.002021 -0.000787    68.497
   0.09186  0.91167  0.02516  1.14732  0.134736  0.002022 -0.000787    66.649
   0.10852  0.89549  0.02915  1.14735  0.130922  0.002023 -0.000787    64.726
   0.12544  0.87905  0.03313  1.14738  0.127016  0.002025 -0.000786    62.728
   0.14250  0.86245  0.03708  1.14740  0.123033  0.002028 -0.000785    60.666
   0.15964  0.84577  0.04099  1.14740  0.118988  0.002032 -0.000784    58.546
   0.17681  0.82904  0.04484  1.14740  0.114890  0.002038 -0.000782    56.378
   0.19398  0.81229  0.04864  1.14738  0.110750  0.002044 -0.000780    54.171
   0.21115  0.79553  0.05238  1.14736  0.106574  0.002052 -0.000777    51.933
   0.22833  0.77875  0.05606  1.14732  0.102359  0.002061 -0.000775    49.664
   0.24546  0.76200  0.05967  1.14726  0.098112  0.002071 -0.000771    47.373
   0.26249  0.74535  0.06319  1.14719  0.093866  0.002082 -0.000768    45.084
   0.27941  0.72877  0.06660  1.14711  0.089646  0.002094 -0.000764    42.818
   0.29629  0.71222  0.06990  1.14702  0.085452  0.002106 -0.000760    40.580
   0.31313  0.69568  0.07308  1.14692  0.081282  0.002118 -0.000756    38.371
   0.32994  0.67915  0.07616  1.14681  0.077155  0.002131 -0.000752    36.205
   0.34670  0.66266  0.07911  1.14669  0.073063  0.002144 -0.000749    34.076
   0.36339  0.64620  0.08193  1.14657  0.069031  0.002157 -0.000745    32.001
   0.38005  0.62976  0.08462  1.14644  0.065063  0.002170 -0.000742    29.983
   0.39672  0.61329  0.08718  1.14630  0.061156  0.002183 -0.000739    28.021
   0.41338  0.59681  0.08962  1.14617  0.057306  0.002195 -0.000736    26.110
   0.42997  0.58038  0.09191  1.14603  0.053529  0.002206 -0.000733    24.260
   0.44649  0.56400  0.09406  1.14591  0.049849  0.002217 -0.000732    22.481
   0.46301  0.54760  0.09605  1.14579  0.046262  0.002227 -0.000730    20.772
   0.47954  0.53117  0.09790  1.14570  0.042754  0.002236 -0.000730    19.124
   0.49603  0.51477  0.09961  1.14563  0.039337  0.002243 -0.000731    17.539
   0.51242  0.49845  0.10115  1.14561  0.036037  0.002248 -0.000732    16.029
   0.52875  0.48218  0.10252  1.14566  0.032874  0.002251 -0.000736    14.604
   0.54509  0.46588  0.10371  1.14581  0.029830  0.002251 -0.000741    13.251
   0.56144  0.44957  0.10475  1.14608  0.026907  0.002248 -0.000749    11.970
   0.57774  0.43329  0.10561  1.14653  0.024114  0.002241 -0.000760    10.761
   0.59394  0.41711  0.10630  1.14722  0.021482  0.002229 -0.000775     9.637
   0.61007  0.40098  0.10679  1.14826  0.019020  0.002212 -0.000797     8.600
   0.62617  0.38489  0.10708  1.14974  0.016727  0.002188 -0.000828     7.645
   0.64227  0.36879  0.10718  1.15185  0.014613  0.002156 -0.000872     6.777
   0.65836  0.35270  0.10708  1.15477  0.012667  0.002117 -0.000933     5.985
   0.67432  0.33674  0.10680  1.15875  0.010914  0.002067 -0.000979     5.279
   0.69010  0.32097  0.10629  1.16405  0.009382  0.002008 -0.000908     4.672
   0.70583  0.30526  0.10554  1.17080  0.008103  0.001939 -0.000566     4.179
   0.72167  0.28945  0.10454  1.17895  0.007015  0.001862  0.000150     3.768
   0.73747  0.27369  0.10335  1.18869  0.006090  0.001774  0.001262     3.432
   0.75302  0.25820  0.10195  1.19963  0.005313  0.001680  0.002738     3.163
   0.76841  0.24291  0.10027  1.21043  0.004739  0.001587  0.004205     2.985
   0.78386  0.22758  0.09831  1.22029  0.004309  0.001500  0.005521     2.871
   0.79934  0.21226  0.09610  1.22935  0.003936  0.001416  0.006902     2.779
   0.81467  0.19713  0.09366  1.23724  0.003607  0.001336  0.008386     2.699
   0.82983  0.18221  0.09095  1.24291  0.003353  0.001264  0.009595     2.652
   0.84493  0.16741  0.08797  1.24692  0.003142  0.001197  0.010596     2.626
   0.85995  0.15275  0.08473  1.25018  0.002933  0.001129  0.011748     2.598
   0.87475  0.13836  0.08125  1.25232  0.002730  0.001062  0.013044     2.571
   0.88915  0.12444  0.07757  1.25330  0.002513  0.000994  0.014866     2.528
   0.90314  0.11101  0.07364  1.25058  0.002356  0.000935  0.015964     2.520
   0.91683  0.09797  0.06946  1.24670  0.002209  0.000875  0.016923     2.523
   0.92993  0.08560  0.06517  1.24295  0.002029  0.000811  0.018808     2.501
   0.94206  0.07425  0.06087  1.23683  0.001830  0.000748  0.021978     2.446
   0.95332  0.06387  0.05649  1.22353  0.001716  0.000699  0.023028     2.453
   0.96371  0.05444  0.05215  1.21037  0.001607  0.000650  0.023818     2.473
   0.97301  0.04611  0.04801  1.19906  0.001472  0.000596  0.025900     2.468
   0.98119  0.03891  0.04412  1.18616  0.001323  0.000544  0.029559     2.432
   0.98837  0.03273  0.04046  1.16764  0.001211  0.000501  0.032172     2.420
   0.99470  0.02743  0.03701  1.14615  0.001102  0.000460  0.035539     2.397
   1.00030  0.02288  0.03375  1.11982  0.001012  0.000425  0.038281     2.384
   1.00527  0.01898  0.03066  1.09023  0.000933  0.000392  0.040597     2.380
   1.00973  0.01561  0.02774  1.05679  0.000844  0.000360  0.045144     2.342
   1.01375  0.01272  0.02495  1.01425  0.000782  0.000336  0.047363     2.329
   1.01739  0.01024  0.02228  0.96804  0.000732  0.000313  0.047720     2.341
   1.02073  0.00811  0.01971  0.91713  0.000659  0.000288  0.052847     2.286
   1.02380  0.00630  0.01724  0.85398  0.000630  0.000273  0.050569     2.306
   1.02664  0.00476  0.01485  0.78974  0.000580  0.000254  0.051888     2.283
   1.02926  0.00350  0.01255  0.71606  0.000544  0.000239  0.050388     2.279
   1.03171  0.00246  0.01033  0.63144  0.000506  0.000227  0.050126     2.225
   1.03400  0.00163  0.00819  0.54115  0.000508  0.000223  0.040841     2.276
   1.03618  0.00098  0.00612  0.45589  0.000465  0.000206  0.038270     2.256
   1.03826  0.00048  0.00410  0.35457  0.000439  0.000196  0.032187     2.234
   1.04024  0.00015  0.00214  0.24591  0.000419  0.000186  0.022918     2.255
   1.04215  0.00001  0.00024  0.12537  0.000380  0.000170  0.013199     2.230
   1.04400  0.00012 -0.00161 -0.01001  0.000380  0.000170  0.001056     2.230
   1.04587  0.00052 -0.00343 -0.16500  0.000343  0.000154  0.019267     2.227
   1.04780  0.00123 -0.00524 -0.31626  0.000377  0.000167  0.032690     2.258
   1.04986  0.00223 -0.00703 -0.44472  0.000412  0.000183  0.042343     2.251
   1.05205  0.00354 -0.00879 -0.55318  0.000458  0.000201  0.046314     2.277
   1.05438  0.00514 -0.01048 -0.64381  0.000502  0.000220  0.049008     2.280
   1.05689  0.00705 -0.01212 -0.70970  0.000583  0.000249  0.043970     2.340
   1.05960  0.00924 -0.01371 -0.75775  0.000660  0.000281  0.041168     2.348
   1.06254  0.01171 -0.01530 -0.79959  0.000726  0.000310  0.039618     2.344
   1.06576  0.01450 -0.01689 -0.83618  0.000798  0.000339  0.037313     2.354
   1.06931  0.01766 -0.01852 -0.86685  0.000881  0.000371  0.034450     2.372
   1.07328  0.02125 -0.02021 -0.89603  0.000950  0.000402  0.033251     2.365
   1.07773  0.02534 -0.02197 -0.92460  0.001022  0.000432  0.031951     2.363
   1.08275  0.03002 -0.02380 -0.95178  0.001100  0.000464  0.030379     2.369
   1.08845  0.03539 -0.02569 -0.97649  0.001192  0.000500  0.028407     2.382
   1.09493  0.04158 -0.02763 -1.00072  0.001278  0.000537  0.027171     2.381
   1.10237  0.04875 -0.02960 -1.01981  0.001411  0.000584  0.024182     2.417
   1.11095  0.05710 -0.03158 -1.03343  0.001570  0.000640  0.021229     2.453
   1.12083  0.06678 -0.03358 -1.04365  0.001739  0.000702  0.018931     2.475
   1.13204  0.07781 -0.03556 -1.05284  0.001899  0.000766  0.017432     2.478
   1.14448  0.09010 -0.03747 -1.06005  0.002079  0.000834  0.015805     2.491
   1.15809  0.10359 -0.03926 -1.06522  0.002271  0.000906  0.014290     2.507
   1.17266  0.11806 -0.04096 -1.07056  0.002435  0.000973  0.013490     2.501
   1.18781  0.13314 -0.04249 -1.07677  0.002571  0.001035  0.013061     2.485
   1.20335  0.14862 -0.04385 -1.08186  0.002731  0.001097  0.012296     2.490
   1.21923  0.16445 -0.04503 -1.08642  0.002881  0.001156  0.011679     2.492
   1.23540  0.18059 -0.04604 -1.08980  0.003046  0.001217  0.010958     2.503
   1.25175  0.19691 -0.04691 -1.09379  0.003169  0.001271  0.010672     2.494
   1.26813  0.21328 -0.04763 -1.09720  0.003303  0.001324  0.010259     2.495
   1.28457  0.22971 -0.04819 -1.10049  0.003427  0.001375  0.009930     2.494
   1.30115  0.24629 -0.04860 -1.10299  0.003568  0.001427  0.009486     2.501
   1.31783  0.26296 -0.04890 -1.10555  0.003689  0.001475  0.009196     2.501
   1.33448  0.27961 -0.04908 -1.10834  0.003793  0.001520  0.009020     2.495
   1.35110  0.29624 -0.04912 -1.11046  0.003917  0.001567  0.008708     2.500
   1.36778  0.31291 -0.04903 -1.11237  0.004037  0.001612  0.008431     2.504
   1.38450  0.32963 -0.04882 -1.11416  0.004151  0.001657  0.008194     2.506
   1.40120  0.34633 -0.04849 -1.11560  0.004271  0.001701  0.007932     2.511
   1.41786  0.36298 -0.04803 -1.11702  0.004381  0.001743  0.007727     2.513
   1.43449  0.37961 -0.04745 -1.11763  0.004519  0.001789  0.007393     2.525
   1.45114  0.39623 -0.04673 -1.11800  0.004654  0.001835  0.007096     2.536
   1.46777  0.41285 -0.04588 -1.11766  0.004811  0.001884  0.006726     2.554
   1.48439  0.42943 -0.04489 -1.11700  0.004969  0.001932  0.006384     2.572
   1.50097  0.44597 -0.04378 -1.11574  0.005147  0.001984  0.005999     2.595
   1.51751  0.46247 -0.04253 -1.11381  0.005349  0.002038  0.005566     2.625
   1.53401  0.47892 -0.04112 -1.11098  0.005596  0.002098  0.005047     2.667
   1.55050  0.49532 -0.03957 -1.10737  0.005883  0.002162  0.004480     2.721
   1.56702  0.51176 -0.03785 -1.10293  0.006230  0.002232  0.003852     2.791
   1.58368  0.52831 -0.03597 -1.09774  0.006650  0.002308  0.003175     2.881
   1.60055  0.54506 -0.03395 -1.09225  0.007113  0.002386  0.002545     2.981
   1.61761  0.56199 -0.03181 -1.08675  0.007603  0.002464  0.001994     3.085
   1.63483  0.57906 -0.02959 -1.08135  0.008116  0.002541  0.001520     3.194
   1.65218  0.59626 -0.02732 -1.07619  0.008631  0.002616  0.001135     3.300
   1.66962  0.61355 -0.02500 -1.07128  0.009147  0.002688  0.000822     3.403
   1.68712  0.63090 -0.02268 -1.06668  0.009637  0.002757  0.000585     3.495
   1.70462  0.64824 -0.02037 -1.06235  0.010102  0.002824  0.000405     3.578
   1.72205  0.66552 -0.01809 -1.05827  0.010539  0.002888  0.000269     3.649
   1.73939  0.68272 -0.01585 -1.05443  0.010940  0.002950  0.000169     3.709
   1.75663  0.69982 -0.01367 -1.05081  0.011295  0.003010  0.000102     3.753
   1.77378  0.71684 -0.01156 -1.04737  0.011597  0.003068  0.000064     3.780
   1.79085  0.73379 -0.00953 -1.04410  0.011837  0.003124  0.000052     3.789
   1.80784  0.75067 -0.00760 -1.04099  0.012018  0.003179  0.000062     3.780
   1.82474  0.76746 -0.00576 -1.03802  0.012129  0.003232  0.000095     3.752
   1.84154  0.78418 -0.00404 -1.03522  0.012170  0.003284  0.000153     3.706
   1.85823  0.80079 -0.00245 -1.03260  0.012135  0.003333  0.000239     3.641
   1.87481  0.81731 -0.00100 -1.03020  0.012017  0.003379  0.000361     3.556
   1.89126  0.83371  0.00030 -1.02810  0.011812  0.003421  0.000527     3.453
   1.90759  0.85000  0.00143 -1.02643  0.011518  0.003456  0.000749     3.333
   1.92381  0.86619  0.00238 -1.02538  0.011134  0.003481  0.001042     3.198
   1.93987  0.88223  0.00314 -1.02517  0.010670  0.003494  0.001415     3.053
   1.95573  0.89808  0.00370 -1.02616  0.010125  0.003490  0.001893     2.901
   1.97131  0.91366  0.00404 -1.02879  0.009506  0.003463  0.002499     2.745
   1.98653  0.92887  0.00415 -1.03370  0.008809  0.003407  0.003282     2.585
   2.00124  0.94358  0.00401 -1.04169  0.008045  0.003317  0.004297     2.426
   2.01526  0.95760  0.00361 -1.05374  0.007229  0.003186  0.005627     2.269
   2.02837  0.97069  0.00296 -1.07138  0.006366  0.003008  0.007433     2.116
   2.04040  0.98268  0.00205 -1.09669  0.005470  0.002780  0.009966     1.968
   2.05125  0.99348  0.00090 -1.13440  0.004522  0.002485  0.013882     1.819
   2.05783  1.00000  0.00000 -1.11659  0.005206  0.002676  0.010842     1.946
   2.05783  1.00010 -0.00002  1.11659  0.168269  0.009080  0.000000    18.531
   2.06446  1.00660 -0.00132  1.11341  0.163434  0.009607  0.000000    17.012
   2.07221  1.01424 -0.00259  1.10986  0.161296  0.010189  0.000000    15.831
   2.08127  1.02321 -0.00390  1.10567  0.159176  0.010875  0.000000    14.636
   2.09186  1.03370 -0.00528  1.10070  0.156924  0.011689  0.000000    13.425
   2.10423  1.04599 -0.00674  1.09480  0.154376  0.012658  0.000000    12.196
   2.11869  1.06037 -0.00828  1.08776  0.151399  0.013816  0.000000    10.958
   2.13560  1.07720 -0.00990  1.07935  0.147855  0.015205  0.000000     9.724
   2.15535  1.09688 -0.01158  1.06925  0.143588  0.016880  0.000000     8.506
   2.17845  1.11991 -0.01333  1.05704  0.138418  0.018914  0.000000     7.318
   2.20544  1.14684 -0.01512  1.04215  0.132142  0.021412  0.000000     6.171
   2.23698  1.17833 -0.01692  1.02368  0.124549  0.024539  0.000000     5.075
   2.27386  1.21516 -0.01869  0.99979  0.115505  0.028645  0.000000     4.032
   2.31695  1.25822 -0.02038  0.97001  0.104923  0.033892  0.000000     3.096
   2.36732  1.30857 -0.02193  0.94797  0.092612  0.037821  0.000000     2.449
   2.42619  1.36743 -0.02326  0.93559  0.079769  0.039979  0.000000     1.995
   2.49501  1.43623 -0.02424  0.93328  0.067807  0.040360  0.000000     1.680
   2.57543  1.51666 -0.02476  0.93885  0.057835  0.039510  0.000000     1.464
   2.66944  1.61066 -0.02464  0.94854  0.050247  0.038160  0.000000     1.317
   2.77931  1.72053 -0.02370  0.95895  0.044795  0.036824  0.000000     1.216
   2.90773  1.84893 -0.02169  0.96831  0.040972  0.035704  0.000000     1.148
   3.05782  1.99899 -0.01834  0.98267  0.037453  0.034100  0.000000     1.098
