#    s        x        y     Ue/Vinf    Dstar     Theta      Cf       H
   0.00000  1.00000  0.00000  1.11654  0.172449  0.009158 -0.000174    18.830
   0.00668  0.99360  0.00192  1.11856  0.168849  0.008818 -0.000181    19.149
   0.01807  0.98272  0.00530  1.12243  0.165071  0.008183 -0.000195    20.172
   0.03106  0.97032  0.00914  1.12721  0.160899  0.007425 -0.000215    21.669
   0.04516  0.95680  0.01317  1.13294  0.156545  0.006549 -0.000244    23.902
   0.06006  0.94246  0.01720  1.13983  0.152105  0.005539 -0.000286    27.459
   0.07565  0.92739  0.02118  1.14842  0.147543  0.004333 -0.000290    34.050
   0.09186  0.91167  0.02516  1.16046  0.142603  0.002699 -0.000296    52.844
   0.10852  0.89549  0.02915  1.16637  0.138301  0.001962 -0.000824    70.474
   0.12544  0.87905  0.03313  1.16643  0.134519  0.001961 -0.000825    68.597
   0.14250  0.86245  0.03708  1.16647  0.130615  0.001961 -0.000825    66.603
   0.15964  0.84577  0.04099  1.16650  0.126616  0.001963 -0.000825    64.513
   0.17681  0.82904  0.04484  1.16652  0.122539  0.001966 -0.000824    62.343
   0.19398  0.81229  0.04864  1.16653  0.118398  0.001970 -0.000822    60.105
   0.21115  0.79553  0.05238  1.16653  0.114204  0.001975 -0.000820    57.812
   0.22833  0.77875  0.05606  1.16651  0.109954  0.001982 -0.000818    55.466
   0.24546  0.76200  0.05967  1.16648  0.105659  0.001991 -0.000815    53.077
   0.26249  0.74535  0.06319  1.16643  0.101353  0.002000 -0.000811    50.673
   0.27941  0.72877  0.06660  1.16637  0.097058  0.002010 -0.000807    48.277
   0.29629  0.71222  0.06990  1.16630  0.092778  0.002021 -0.000804    45.896
   0.31313  0.69568  0.07308  1.16622  0.088515  0.002033 -0.000800    43.537
   0.32994  0.67915  0.07616  1.16612  0.084279  0.002045 -0.000795    41.207
   0.34670  0.66266  0.07911  1.16602  0.080073  0.002058 -0.000791    38.911
   0.36339  0.64620  0.08193  1.16590  0.075912  0.002071 -0.000787    36.660
   0.38005  0.62976  0.08462  1.16578  0.071812  0.002084 -0.000783    34.466
   0.39672  0.61329  0.08718  1.16566  0.067758  0.002096 -0.000779    32.321
   0.41338  0.59681  0.08962  1.16552  0.063754  0.002109 -0.000776    30.226
   0.42997  0.58038  0.09191  1.16538  0.059811  0.002122 -0.000772    28.187
   0.44649  0.56400  0.09406  1.16524  0.055959  0.002134 -0.000769    26.222
   0.46301  0.54760  0.09605  1.16511  0.052187  0.002146 -0.000767    24.324
   0.47954  0.53117  0.09790  1.16498  0.048488  0.002156 -0.000765    22.488
   0.49603  0.51477  0.09961  1.16486  0.044865  0.002166 -0.000764    20.713
   0.51242  0.49845  0.10115  1.16477  0.041354  0.002175 -0.000763    19.017
   0.52875  0.48218  0.10252  1.16471  0.037968  0.002181 -0.000764    17.407
   0.54509  0.46588  0.10371  1.16471  0.034696  0.002186 -0.000766    15.873
   0.56144  0.44957  0.10475  1.16478  0.031528  0.002188 -0.000770    14.408
   0.57774  0.43329  0.10561  1.16495  0.028476  0.002188 -0.000776    13.016
   0.59394  0.41711  0.10630  1.16527  0.025570  0.002184 -0.000785    11.709
   0.61007  0.40098  0.10679  1.16581  0.022830  0.002175 -0.000798    10.494
   0.62617  0.38489  0.10708  1.16662  0.020239  0.002162 -0.000817     9.361
   0.64227  0.36879  0.10718  1.16785  0.017822  0.002143 -0.000843     8.318
   0.65836  0.35270  0.10708  1.16961  0.015563  0.002116 -0.000880     7.355
   0.67432  0.33674  0.10680  1.17208  0.013490  0.002082 -0.000934     6.480
   0.69010  0.32097  0.10629  1.17550  0.011617  0.002039 -0.001003     5.698
   0.70583  0.30526  0.10554  1.18022  0.010005  0.001985 -0.001023     5.039
   0.72167  0.28945  0.10454  1.18649  0.008600  0.001921 -0.000861     4.477
   0.73747  0.27369  0.10335  1.19429  0.007356  0.001847 -0.000304     3.982
   0.75302  0.25820  0.10195  1.20363  0.006316  0.001765  0.000732     3.578
   0.76841  0.24291  0.10027  1.21437  0.005515  0.001675  0.002041     3.292
   0.78386  0.22758  0.09831  1.22568  0.004903  0.001583  0.003415     3.098
   0.79934  0.21226  0.09610  1.23702  0.004390  0.001490  0.004931     2.945
   0.81467  0.19713  0.09366  1.24753  0.003968  0.001402  0.006499     2.829
   0.82983  0.18221  0.09095  1.25636  0.003640  0.001322  0.007878     2.754
   0.84493  0.16741  0.08797  1.26363  0.003374  0.001246  0.009068     2.707
   0.85995  0.15275  0.08473  1.27016  0.003117  0.001172  0.010453     2.660
   0.87475  0.13836  0.08125  1.27506  0.002893  0.001101  0.011738     2.628
   0.88915  0.12444  0.07757  1.27925  0.002652  0.001029  0.013606     2.578
   0.90314  0.11101  0.07364  1.28007  0.002474  0.000965  0.014838     2.563
   0.91683  0.09797  0.06946  1.27969  0.002310  0.000902  0.015933     2.561
   0.92993  0.08560  0.06517  1.27931  0.002122  0.000836  0.017774     2.538
   0.94206  0.07425  0.06087  1.27734  0.001902  0.000769  0.021233     2.473
   0.95332  0.06387  0.05649  1.26768  0.001790  0.000719  0.022023     2.489
   0.96371  0.05444  0.05215  1.25926  0.001672  0.000667  0.022966     2.507
   0.97301  0.04611  0.04801  1.25254  0.001518  0.000611  0.025710     2.487
   0.98119  0.03891  0.04412  1.24297  0.001384  0.000560  0.028420     2.472
   0.98837  0.03273  0.04046  1.23091  0.001252  0.000512  0.032040     2.444
   0.99470  0.02743  0.03701  1.21415  0.001139  0.000471  0.035535     2.421
   1.00030  0.02288  0.03375  1.19300  0.001042  0.000434  0.038939     2.402
   1.00527  0.01898  0.03066  1.16774  0.000959  0.000401  0.041745     2.393
   1.00973  0.01561  0.02774  1.13903  0.000874  0.000369  0.045836     2.367
   1.01375  0.01272  0.02495  1.10372  0.000806  0.000343  0.048886     2.352
   1.01739  0.01024  0.02228  1.06357  0.000747  0.000318  0.051136     2.346
   1.02073  0.00811  0.01971  1.01806  0.000683  0.000295  0.054959     2.318
   1.02380  0.00630  0.01724  0.96371  0.000637  0.000275  0.055993     2.314
   1.02664  0.00476  0.01485  0.90091  0.000582  0.000257  0.060101     2.262
   1.02926  0.00350  0.01255  0.82981  0.000571  0.000247  0.053580     2.318
   1.03171  0.00246  0.01033  0.75731  0.000509  0.000229  0.059863     2.223
   1.03400  0.00163  0.00819  0.66794  0.000516  0.000227  0.049605     2.276
   1.03618  0.00098  0.00612  0.58660  0.000481  0.000214  0.047819     2.251
   1.03826  0.00048  0.00410  0.49664  0.000461  0.000203  0.041582     2.269
   1.04024  0.00015  0.00214  0.40099  0.000418  0.000185  0.037100     2.266
   1.04215  0.00001  0.00024  0.28328  0.000378  0.000169  0.029762     2.237
   1.04400  0.00012 -0.00161  0.14457  0.000368  0.000165  0.015733     2.230
   1.04587  0.00052 -0.00343 -0.00072  0.000367  0.000165  0.000077     2.230
   1.04780  0.00123 -0.00524 -0.15532  0.000362  0.000162  0.017181     2.230
   1.04986  0.00223 -0.00703 -0.29026  0.000416  0.000183  0.026938     2.268
   1.05205  0.00354 -0.00879 -0.41028  0.000436  0.000196  0.037619     2.230
   1.05438  0.00514 -0.01048 -0.51346  0.000489  0.000214  0.039828     2.287
   1.05689  0.00705 -0.01212 -0.58836  0.000562  0.000243  0.038854     2.311
   1.05960  0.00924 -0.01371 -0.64303  0.000648  0.000277  0.035883     2.338
   1.06254  0.01171 -0.01530 -0.69108  0.000707  0.000305  0.036075     2.317
   1.06576  0.01450 -0.01689 -0.73729  0.000763  0.000330  0.035744     2.314
   1.06931  0.01766 -0.01852 -0.77547  0.000847  0.000361  0.032772     2.349
   1.07328  0.02125 -0.02021 -0.80976  0.000919  0.000392  0.031598     2.347
   1.07773  0.02534 -0.02197 -0.84368  0.000985  0.000421  0.030877     2.341
   1.08275  0.03002 -0.02380 -0.87649  0.001059  0.000452  0.029729     2.346
   1.08845  0.03539 -0.02569 -0.90698  0.001144  0.000485  0.028169     2.357
   1.09493  0.04158 -0.02763 -0.93490  0.001240  0.000523  0.026481     2.369
   1.10237  0.04875 -0.02960 -0.95762  0.001368  0.000570  0.023815     2.401
   1.11095  0.05710 -0.03158 -0.97619  0.001510  0.000623  0.021529     2.422
   1.12083  0.06678 -0.03358 -0.99015  0.001681  0.000686  0.019036     2.451
   1.13204  0.07781 -0.03556 -1.00356  0.001827  0.000747  0.017863     2.446
   1.14448  0.09010 -0.03747 -1.01412  0.002007  0.000814  0.016109     2.465
   1.15809  0.10359 -0.03926 -1.02280  0.002185  0.000883  0.014763     2.475
   1.17266  0.11806 -0.04096 -1.03113  0.002344  0.000949  0.013932     2.471
   1.18781  0.13314 -0.04249 -1.03996  0.002478  0.001008  0.013480     2.457
   1.20335  0.14862 -0.04385 -1.04700  0.002641  0.001070  0.012605     2.467
   1.21923  0.16445 -0.04503 -1.05359  0.002783  0.001128  0.012046     2.467
   1.23540  0.18059 -0.04604 -1.05856  0.002946  0.001188  0.011278     2.479
   1.25175  0.19691 -0.04691 -1.06436  0.003058  0.001240  0.011065     2.467
   1.26813  0.21328 -0.04763 -1.06921  0.003192  0.001292  0.010617     2.470
   1.28457  0.22971 -0.04819 -1.07381  0.003313  0.001341  0.010277     2.470
   1.30115  0.24629 -0.04860 -1.07735  0.003455  0.001393  0.009786     2.480
   1.31783  0.26296 -0.04890 -1.08117  0.003566  0.001440  0.009546     2.477
   1.33448  0.27961 -0.04908 -1.08499  0.003669  0.001484  0.009355     2.472
   1.35110  0.29624 -0.04912 -1.08817  0.003786  0.001529  0.009056     2.476
   1.36778  0.31291 -0.04903 -1.09093  0.003905  0.001574  0.008754     2.481
   1.38450  0.32963 -0.04882 -1.09362  0.004014  0.001617  0.008524     2.483
   1.40120  0.34633 -0.04849 -1.09603  0.004124  0.001659  0.008292     2.485
   1.41786  0.36298 -0.04803 -1.09797  0.004242  0.001703  0.008020     2.492
   1.43449  0.37961 -0.04745 -1.09953  0.004364  0.001746  0.007744     2.499
   1.45114  0.39623 -0.04673 -1.10060  0.004494  0.001790  0.007441     2.510
   1.46777  0.41285 -0.04588 -1.10102  0.004640  0.001837  0.007085     2.526
   1.48439  0.42943 -0.04489 -1.10105  0.004789  0.001884  0.006749     2.542
   1.50097  0.44597 -0.04378 -1.10059  0.004948  0.001933  0.006400     2.560
   1.51751  0.46247 -0.04253 -1.09926  0.005140  0.001986  0.005960     2.588
   1.53401  0.47892 -0.04112 -1.09707  0.005366  0.002043  0.005456     2.626
   1.55050  0.49532 -0.03957 -1.09411  0.005624  0.002105  0.004916     2.672
   1.56702  0.51176 -0.03785 -1.09011  0.005948  0.002174  0.004278     2.736
   1.58368  0.52831 -0.03597 -1.08530  0.006331  0.002248  0.003603     2.817
   1.60055  0.54506 -0.03395 -1.08010  0.006754  0.002325  0.002971     2.905
   1.61761  0.56199 -0.03181 -1.07476  0.007202  0.002403  0.002409     2.997
   1.63483  0.57906 -0.02959 -1.06945  0.007666  0.002480  0.001926     3.091
   1.65218  0.59626 -0.02732 -1.06433  0.008125  0.002555  0.001536     3.180
   1.66962  0.61355 -0.02500 -1.05939  0.008586  0.002629  0.001211     3.266
   1.68712  0.63090 -0.02268 -1.05472  0.009021  0.002700  0.000963     3.342
   1.70462  0.64824 -0.02037 -1.05030  0.009434  0.002768  0.000770     3.408
   1.72205  0.66552 -0.01809 -1.04614  0.009814  0.002834  0.000626     3.463
   1.73939  0.68272 -0.01585 -1.04220  0.010168  0.002898  0.000517     3.509
   1.75663  0.69982 -0.01367 -1.03849  0.010477  0.002959  0.000444     3.540
   1.77378  0.71684 -0.01156 -1.03499  0.010739  0.003019  0.000404     3.558
   1.79085  0.73379 -0.00953 -1.03169  0.010947  0.003076  0.000392     3.559
   1.80784  0.75067 -0.00760 -1.02858  0.011100  0.003131  0.000408     3.545
   1.82474  0.76746 -0.00576 -1.02566  0.011194  0.003184  0.000451     3.516
   1.84154  0.78418 -0.00404 -1.02297  0.011226  0.003234  0.000522     3.471
   1.85823  0.80079 -0.00245 -1.02053  0.011190  0.003281  0.000627     3.410
   1.87481  0.81731 -0.00100 -1.01840  0.011084  0.003324  0.000770     3.335
   1.89126  0.83371  0.00030 -1.01669  0.010899  0.003360  0.000962     3.243
   1.90759  0.85000  0.00143 -1.01553  0.010635  0.003389  0.001212     3.138
   1.92381  0.86619  0.00238 -1.01511  0.010293  0.003407  0.001533     3.021
   1.93987  0.88223  0.00314 -1.01565  0.009881  0.003412  0.001933     2.896
   1.95573  0.89808  0.00370 -1.01749  0.009397  0.003399  0.002436     2.765
   1.97131  0.91366  0.00404 -1.02103  0.008846  0.003364  0.003066     2.630
   1.98653  0.92887  0.00415 -1.02693  0.008222  0.003302  0.003875     2.490
   2.00124  0.94358  0.00401 -1.03593  0.007534  0.003206  0.004920     2.350
   2.01526  0.95760  0.00361 -1.04899  0.006795  0.003074  0.006286     2.210
   2.02837  0.97069  0.00296 -1.06769  0.006003  0.002898  0.008147     2.072
   2.04040  0.98268  0.00205 -1.09424  0.005172  0.002673  0.010780     1.935
   2.05125  0.99348  0.00090 -1.13397  0.004273  0.002381  0.014937     1.795
   2.05783  1.00000  0.00000 -1.11654  0.004913  0.002563  0.011737     1.917
   2.05783  1.00010 -0.00002  1.11654  0.177362  0.011721  0.000000    15.131
   2.06446  1.00660 -0.00132  1.11357  0.172744  0.012252  0.000000    14.099
   2.07221  1.01425 -0.00258  1.11026  0.170725  0.012839  0.000000    13.297
   2.08127  1.02321 -0.00388  1.10635  0.168728  0.013530  0.000000    12.471
   2.09186  1.03371 -0.00524  1.10174  0.166608  0.014347  0.000000    11.612
   2.10423  1.04600 -0.00667  1.09627  0.164208  0.015319  0.000000    10.719
   2.11869  1.06038 -0.00816  1.08977  0.161404  0.016478  0.000000     9.795
   2.13560  1.07722 -0.00972  1.08201  0.158063  0.017866  0.000000     8.847
   2.15535  1.09691 -0.01134  1.07272  0.154038  0.019536  0.000000     7.885
   2.17845  1.11994 -0.01300  1.06152  0.149157  0.021562  0.000000     6.918
   2.20544  1.14688 -0.01466  1.04791  0.143227  0.024041  0.000000     5.958
   2.23698  1.17838 -0.01631  1.03111  0.136042  0.027133  0.000000     5.014
   2.27386  1.21522 -0.01788  1.00963  0.127452  0.031145  0.000000     4.092
   2.31695  1.25829 -0.01933  0.98170  0.117415  0.036498  0.000000     3.217
   2.36732  1.30865 -0.02056  0.95933  0.105500  0.040860  0.000000     2.582
   2.42619  1.36751 -0.02148  0.94475  0.092616  0.043676  0.000000     2.121
   2.49501  1.43632 -0.02197  0.93894  0.080003  0.044754  0.000000     1.788
   2.57543  1.51675 -0.02186  0.94096  0.068852  0.044402  0.000000     1.551
   2.66944  1.61075 -0.02097  0.94814  0.059865  0.043247  0.000000     1.384
   2.77931  1.72060 -0.01907  0.95737  0.053095  0.041876  0.000000     1.268
   2.90773  1.84898 -0.01588  0.96654  0.048171  0.040609  0.000000     1.186
   3.05782  1.99900 -0.01108  0.98321  0.043301  0.038475  0.000000     1.125
