#    s        x        y     Ue/Vinf    Dstar     Theta      Cf       H
   0.00000  1.00000  0.00000  1.11841  0.152929  0.002930 -0.000275    52.196
   0.00668  0.99360  0.00192  1.12460  0.148736  0.002058 -0.000757    72.287
   0.01807  0.98272  0.00530  1.12457  0.145471  0.002065 -0.000755    70.448
   0.03106  0.97032  0.00914  1.12454  0.141858  0.002073 -0.000752    68.445
   0.04516  0.95680  0.01317  1.12452  0.138106  0.002079 -0.000750    66.414
   0.06006  0.94246  0.01720  1.12451  0.134329  0.002085 -0.000748    64.422
   0.07565  0.92739  0.02118  1.12451  0.130555  0.002090 -0.000747    62.479
   0.09186  0.91167  0.02516  1.12452  0.126742  0.002093 -0.000746    60.542
   0.10852  0.89549  0.02915  1.12453  0.122847  0.002098 -0.000744    58.563
   0.12544  0.87905  0.03313  1.12453  0.118884  0.002103 -0.000743    56.540
   0.14250  0.86245  0.03708  1.12452  0.114870  0.002108 -0.000741    54.480
   0.15964  0.84577  0.04099  1.12450  0.110815  0.002115 -0.000739    52.389
   0.17681  0.82904  0.04484  1.12448  0.106724  0.002123 -0.000737    50.272
   0.19398  0.81229  0.04864  1.12444  0.102606  0.002132 -0.000734    48.137
   0.21115  0.79553  0.05238  1.12439  0.098470  0.002141 -0.000731    45.991
   0.22833  0.77875  0.05606  1.12433  0.094308  0.002152 -0.000728    43.833
   0.24546  0.76200  0.05967  1.12425  0.090127  0.002163 -0.000725    41.669
   0.26249  0.74535  0.06319  1.12416  0.085960  0.002175 -0.000722    39.520
   0.27941  0.72877  0.06660  1.12407  0.081830  0.002188 -0.000718    37.406
   0.29629  0.71222  0.06990  1.12396  0.077738  0.002200 -0.000715    35.328
   0.31313  0.69568  0.07308  1.12384  0.073686  0.002213 -0.000711    33.290
   0.32994  0.67915  0.07616  1.12372  0.069680  0.002226 -0.000708    31.297
   0.34670  0.66266  0.07911  1.12359  0.065726  0.002239 -0.000705    29.350
   0.36339  0.64620  0.08193  1.12346  0.061837  0.002252 -0.000702    27.458
   0.38005  0.62976  0.08462  1.12333  0.058029  0.002264 -0.000699    25.629
   0.39672  0.61329  0.08718  1.12320  0.054290  0.002276 -0.000697    23.857
   0.41338  0.59681  0.08962  1.12308  0.050615  0.002287 -0.000696    22.136
   0.42997  0.58038  0.09191  1.12297  0.047031  0.002296 -0.000695    20.480
   0.44649  0.56400  0.09406  1.12288  0.043547  0.002305 -0.000694    18.892
   0.46301  0.54760  0.09605  1.12282  0.040169  0.002312 -0.000695    17.374
   0.47954  0.53117  0.09790  1.12281  0.036890  0.002317 -0.000697    15.921
   0.49603  0.51477  0.09961  1.12285  0.033701  0.002320 -0.000700    14.525
   0.51242  0.49845  0.10115  1.12297  0.030647  0.002321 -0.000705    13.207
   0.52875  0.48218  0.10252  1.12323  0.027743  0.002317 -0.000712    11.971
   0.54509  0.46588  0.10371  1.12365  0.024976  0.002310 -0.000722    10.810
   0.56144  0.44957  0.10475  1.12429  0.022327  0.002299 -0.000736     9.711
   0.57774  0.43329  0.10561  1.12523  0.019839  0.002282 -0.000756     8.692
   0.59394  0.41711  0.10630  1.12657  0.017512  0.002260 -0.000783     7.750
   0.61007  0.40098  0.10679  1.12846  0.015371  0.002230 -0.000821     6.894
   0.62617  0.38489  0.10708  1.13106  0.013418  0.002192 -0.000875     6.122
   0.64227  0.36879  0.10718  1.13462  0.011652  0.002145 -0.000926     5.433
   0.65836  0.35270  0.10708  1.13936  0.010079  0.002087 -0.000903     4.829
   0.67432  0.33674  0.10680  1.14544  0.008679  0.002021 -0.000651     4.296
   0.69010  0.32097  0.10629  1.15272  0.007504  0.001947 -0.000048     3.855
   0.70583  0.30526  0.10554  1.16139  0.006556  0.001863  0.000864     3.519
   0.72167  0.28945  0.10454  1.17126  0.005788  0.001772  0.001989     3.266
   0.73747  0.27369  0.10335  1.18186  0.005126  0.001677  0.003377     3.057
   0.75302  0.25820  0.10195  1.19228  0.004573  0.001583  0.004956     2.889
   0.76841  0.24291  0.10027  1.20111  0.004165  0.001498  0.006354     2.781
   0.78386  0.22758  0.09831  1.20800  0.003866  0.001421  0.007447     2.720
   0.79934  0.21226  0.09610  1.21409  0.003581  0.001346  0.008697     2.660
   0.81467  0.19713  0.09366  1.21865  0.003327  0.001275  0.009975     2.609
   0.82983  0.18221  0.09095  1.22116  0.003116  0.001210  0.011083     2.576
   0.84493  0.16741  0.08797  1.22188  0.002938  0.001148  0.011984     2.559
   0.85995  0.15275  0.08473  1.22176  0.002758  0.001086  0.013037     2.540
   0.87475  0.13836  0.08125  1.22020  0.002592  0.001025  0.014025     2.529
   0.88915  0.12444  0.07757  1.21826  0.002385  0.000960  0.015927     2.486
   0.90314  0.11101  0.07364  1.21196  0.002235  0.000903  0.017098     2.475
   0.91683  0.09797  0.06946  1.20367  0.002112  0.000848  0.017696     2.490
   0.92993  0.08560  0.06517  1.19636  0.001934  0.000785  0.019763     2.463
   0.94206  0.07425  0.06087  1.18528  0.001755  0.000726  0.022625     2.417
   0.95332  0.06387  0.05649  1.16738  0.001643  0.000679  0.023706     2.420
   0.96371  0.05444  0.05215  1.14917  0.001547  0.000632  0.024131     2.447
   0.97301  0.04611  0.04801  1.13328  0.001401  0.000578  0.026933     2.422
   0.98119  0.03891  0.04412  1.11318  0.001284  0.000532  0.029059     2.416
   0.98837  0.03273  0.04046  1.09071  0.001165  0.000487  0.032111     2.393
   0.99470  0.02743  0.03701  1.06317  0.001063  0.000448  0.034965     2.374
   1.00030  0.02288  0.03375  1.03084  0.000975  0.000413  0.037491     2.359
   1.00527  0.01898  0.03066  0.99403  0.000896  0.000382  0.039889     2.344
   1.00973  0.01561  0.02774  0.95247  0.000827  0.000354  0.041879     2.333
   1.01375  0.01272  0.02495  0.90529  0.000759  0.000329  0.044441     2.308
   1.01739  0.01024  0.02228  0.85267  0.000716  0.000307  0.043424     2.330
   1.02073  0.00811  0.01971  0.79604  0.000642  0.000283  0.047668     2.273
   1.02380  0.00630  0.01724  0.72855  0.000617  0.000267  0.043577     2.316
   1.02664  0.00476  0.01485  0.65695  0.000549  0.000245  0.047412     2.241
   1.02926  0.00350  0.01255  0.56815  0.000539  0.000239  0.041144     2.256
   1.03171  0.00246  0.01033  0.48508  0.000512  0.000224  0.036232     2.280
   1.03400  0.00163  0.00819  0.39124  0.000468  0.000212  0.033972     2.212
   1.03618  0.00098  0.00612  0.28864  0.000478  0.000212  0.023621     2.253
   1.03826  0.00048  0.00410  0.19027  0.000432  0.000192  0.017301     2.249
   1.04024  0.00015  0.00214  0.07027  0.000389  0.000174  0.007226     2.230
   1.04215  0.00001  0.00024 -0.06240  0.000389  0.000174  0.006417     2.230
   1.04400  0.00012 -0.00161 -0.20804  0.000355  0.000160  0.023685     2.217
   1.04587  0.00052 -0.00343 -0.37027  0.000347  0.000155  0.042675     2.231
   1.04780  0.00123 -0.00524 -0.50400  0.000397  0.000173  0.048024     2.290
   1.04986  0.00223 -0.00703 -0.62760  0.000408  0.000183  0.061584     2.229
   1.05205  0.00354 -0.00879 -0.72884  0.000469  0.000202  0.057358     2.317
   1.05438  0.00514 -0.01048 -0.80383  0.000522  0.000226  0.057251     2.310
   1.05689  0.00705 -0.01212 -0.86065  0.000596  0.000254  0.051540     2.351
   1.05960  0.00924 -0.01371 -0.89497  0.000700  0.000290  0.043053     2.411
   1.06254  0.01171 -0.01530 -0.92491  0.000765  0.000321  0.041893     2.382
   1.06576  0.01450 -0.01689 -0.95343  0.000835  0.000351  0.039597     2.381
   1.06931  0.01766 -0.01852 -0.97944  0.000908  0.000381  0.037237     2.386
   1.07328  0.02125 -0.02021 -0.99844  0.001014  0.000418  0.032660     2.426
   1.07773  0.02534 -0.02197 -1.02085  0.001067  0.000447  0.033025     2.386
   1.08275  0.03002 -0.02380 -1.04244  0.001150  0.000480  0.031041     2.395
   1.08845  0.03539 -0.02569 -1.06202  0.001243  0.000516  0.028928     2.406
   1.09493  0.04158 -0.02763 -1.07898  0.001351  0.000557  0.026575     2.423
   1.10237  0.04875 -0.02960 -1.09340  0.001472  0.000603  0.024277     2.440
   1.11095  0.05710 -0.03158 -1.10151  0.001651  0.000662  0.020669     2.492
   1.12083  0.06678 -0.03358 -1.10673  0.001827  0.000726  0.018308     2.515
   1.13204  0.07781 -0.03556 -1.11181  0.001988  0.000791  0.016936     2.513
   1.14448  0.09010 -0.03747 -1.11480  0.002181  0.000861  0.015161     2.532
   1.15809  0.10359 -0.03926 -1.11607  0.002386  0.000935  0.013602     2.551
   1.17266  0.11806 -0.04096 -1.11824  0.002550  0.001004  0.012900     2.540
   1.18781  0.13314 -0.04249 -1.12097  0.002703  0.001069  0.012340     2.529
   1.20335  0.14862 -0.04385 -1.12359  0.002858  0.001132  0.011744     2.526
   1.21923  0.16445 -0.04503 -1.12578  0.003016  0.001193  0.011126     2.528
   1.23540  0.18059 -0.04604 -1.12701  0.003188  0.001256  0.010412     2.539
   1.25175  0.19691 -0.04691 -1.12892  0.003320  0.001312  0.010098     2.531
   1.26813  0.21328 -0.04763 -1.13091  0.003447  0.001365  0.009803     2.526
   1.28457  0.22971 -0.04819 -1.13254  0.003581  0.001417  0.009438     2.527
   1.30115  0.24629 -0.04860 -1.13352  0.003730  0.001471  0.008987     2.535
   1.31783  0.26296 -0.04890 -1.13463  0.003859  0.001522  0.008688     2.536
   1.33448  0.27961 -0.04908 -1.13650  0.003952  0.001566  0.008612     2.523
   1.35110  0.29624 -0.04912 -1.13733  0.004090  0.001615  0.008251     2.532
   1.36778  0.31291 -0.04903 -1.13820  0.004213  0.001662  0.007991     2.535
   1.38450  0.32963 -0.04882 -1.13886  0.004337  0.001708  0.007731     2.539
   1.40120  0.34633 -0.04849 -1.13930  0.004463  0.001754  0.007474     2.544
   1.41786  0.36298 -0.04803 -1.13952  0.004590  0.001800  0.007218     2.551
   1.43449  0.37961 -0.04745 -1.13939  0.004725  0.001846  0.006938     2.560
   1.45114  0.39623 -0.04673 -1.13874  0.004877  0.001894  0.006606     2.575
   1.46777  0.41285 -0.04588 -1.13756  0.005046  0.001945  0.006239     2.595
   1.48439  0.42943 -0.04489 -1.13607  0.005217  0.001995  0.005890     2.614
   1.50097  0.44597 -0.04378 -1.13394  0.005416  0.002050  0.005481     2.642
   1.51751  0.46247 -0.04253 -1.13113  0.005647  0.002107  0.005016     2.680
   1.53401  0.47892 -0.04112 -1.12763  0.005916  0.002169  0.004501     2.727
   1.55050  0.49532 -0.03957 -1.12342  0.006235  0.002236  0.003933     2.788
   1.56702  0.51176 -0.03785 -1.11834  0.006636  0.002309  0.003274     2.874
   1.58368  0.52831 -0.03597 -1.11283  0.007101  0.002386  0.002616     2.976
   1.60055  0.54506 -0.03395 -1.10712  0.007627  0.002465  0.001993     3.095
   1.61761  0.56199 -0.03181 -1.10152  0.008189  0.002542  0.001453     3.221
   1.63483  0.57906 -0.02959 -1.09617  0.008773  0.002617  0.001003     3.352
   1.65218  0.59626 -0.02732 -1.09114  0.009369  0.002689  0.000640     3.484
   1.66962  0.61355 -0.02500 -1.08644  0.009962  0.002758  0.000357     3.612
   1.68712  0.63090 -0.02268 -1.08207  0.010539  0.002824  0.000144     3.732
   1.70462  0.64824 -0.02037 -1.07799  0.011081  0.002887 -0.000009     3.839
   1.72205  0.66552 -0.01809 -1.07417  0.011595  0.002947 -0.000122     3.935
   1.73939  0.68272 -0.01585 -1.07058  0.012072  0.003005 -0.000202     4.017
   1.75663  0.69982 -0.01367 -1.06718  0.012492  0.003062 -0.000252     4.080
   1.77378  0.71684 -0.01156 -1.06395  0.012854  0.003117 -0.000281     4.124
   1.79085  0.73379 -0.00953 -1.06087  0.013148  0.003171 -0.000292     4.147
   1.80784  0.75067 -0.00760 -1.05790  0.013368  0.003224 -0.000287     4.147
   1.82474  0.76746 -0.00576 -1.05505  0.013514  0.003275 -0.000267     4.126
   1.84154  0.78418 -0.00404 -1.05229  0.013575  0.003326 -0.000230     4.081
   1.85823  0.80079 -0.00245 -1.04962  0.013546  0.003376 -0.000172     4.012
   1.87481  0.81731 -0.00100 -1.04707  0.013423  0.003425 -0.000088     3.920
   1.89126  0.83371  0.00030 -1.04466  0.013195  0.003471  0.000032     3.802
   1.90759  0.85000  0.00143 -1.04247  0.012863  0.003514  0.000202     3.661
   1.92381  0.86619  0.00238 -1.04067  0.012424  0.003550  0.000436     3.500
   1.93987  0.88223  0.00314 -1.03947  0.011889  0.003577  0.000752     3.324
   1.95573  0.89808  0.00370 -1.03925  0.011257  0.003588  0.001172     3.138
   1.97131  0.91366  0.00404 -1.04046  0.010539  0.003577  0.001724     2.946
   1.98653  0.92887  0.00415 -1.04381  0.009732  0.003536  0.002454     2.752
   2.00124  0.94358  0.00401 -1.05013  0.008852  0.003458  0.003412     2.560
   2.01526  0.95760  0.00361 -1.06046  0.007919  0.003335  0.004677     2.375
   2.02837  0.97069  0.00296 -1.07627  0.006943  0.003160  0.006388     2.197
   2.04040  0.98268  0.00205 -1.09956  0.005945  0.002931  0.008773     2.028
   2.05125  0.99348  0.00090 -1.13428  0.004917  0.002635  0.012363     1.866
   2.05783  1.00000  0.00000 -1.11841  0.005589  0.002815  0.009812     1.986
   2.05783  1.00010 -0.00002  1.11841  0.158518  0.005745  0.000000    27.594
   2.06446  1.00660 -0.00133  1.11509  0.153622  0.006245  0.000000    24.598
   2.07221  1.01424 -0.00260  1.11136  0.151443  0.006801  0.000000    22.267
   2.08127  1.02320 -0.00393  1.10691  0.149276  0.007461  0.000000    20.007
   2.09186  1.03369 -0.00534  1.10162  0.146966  0.008249  0.000000    17.817
   2.10423  1.04598 -0.00683  1.09529  0.144344  0.009190  0.000000    15.707
   2.11869  1.06035 -0.00841  1.08783  0.141257  0.010301  0.000000    13.713
   2.13560  1.07717 -0.01009  1.07887  0.137573  0.011639  0.000000    11.820
   2.15535  1.09685 -0.01185  1.06806  0.133125  0.013258  0.000000    10.041
   2.17845  1.11987 -0.01371  1.05493  0.127719  0.015230  0.000000     8.386
   2.20544  1.14679 -0.01563  1.03886  0.121137  0.017655  0.000000     6.862
   2.23698  1.17828 -0.01760  1.01884  0.113150  0.020693  0.000000     5.468
   2.27386  1.21509 -0.01959  0.99290  0.103601  0.024682  0.000000     4.198
   2.31695  1.25814 -0.02156  0.96008  0.092433  0.029839  0.000000     3.098
   2.36732  1.30848 -0.02346  0.93683  0.079661  0.033513  0.000000     2.377
   2.42619  1.36733 -0.02523  0.92618  0.066811  0.035137  0.000000     1.901
   2.49501  1.43612 -0.02677  0.92763  0.055535  0.034932  0.000000     1.590
   2.57543  1.51654 -0.02798  0.93702  0.046800  0.033725  0.000000     1.388
   2.66944  1.61054 -0.02873  0.94917  0.040602  0.032313  0.000000     1.257
   2.77931  1.72041 -0.02886  0.96061  0.036389  0.031093  0.000000     1.170
   2.90773  1.84883 -0.02817  0.97011  0.033558  0.030147  0.000000     1.113
   3.05782  1.99891 -0.02643  0.98238  0.031150  0.028998  0.000000     1.074
