#    s        x        y     Ue/Vinf    Dstar     Theta      Cf       H
   0.00000  1.00000  0.00000  1.11851  0.183231  0.011654 -0.000138    15.723
   0.00668  0.99360  0.00192  1.12014  0.179711  0.011356 -0.000142    15.825
   0.01807  0.98272  0.00530  1.12319  0.175935  0.010813 -0.000149    16.271
   0.03106  0.97032  0.00914  1.12687  0.171761  0.010177 -0.000159    16.878
   0.04516  0.95680  0.01317  1.13113  0.167423  0.009463 -0.000171    17.692
   0.06006  0.94246  0.01720  1.13600  0.163047  0.008676 -0.000187    18.792
   0.07565  0.92739  0.02118  1.14164  0.158649  0.007798 -0.000208    20.344
   0.09186  0.91167  0.02516  1.14814  0.154180  0.006826 -0.000238    22.586
   0.10852  0.89549  0.02915  1.15575  0.149570  0.005739 -0.000284    26.060
   0.12544  0.87905  0.03313  1.16493  0.144774  0.004486 -0.000298    32.273
   0.14250  0.86245  0.03708  1.17723  0.139629  0.002875 -0.000305    48.569
   0.15964  0.84577  0.04099  1.18537  0.134909  0.001895 -0.000867    71.191
   0.17681  0.82904  0.04484  1.18542  0.130939  0.001894 -0.000868    69.131
   0.19398  0.81229  0.04864  1.18546  0.126854  0.001895 -0.000868    66.941
   0.21115  0.79553  0.05238  1.18549  0.122681  0.001898 -0.000867    64.651
   0.22833  0.77875  0.05606  1.18550  0.118424  0.001902 -0.000865    62.270
   0.24546  0.76200  0.05967  1.18549  0.114101  0.001908 -0.000863    59.814
   0.26249  0.74535  0.06319  1.18547  0.109747  0.001915 -0.000860    57.314
   0.27941  0.72877  0.06660  1.18544  0.105389  0.001923 -0.000857    54.801
   0.29629  0.71222  0.06990  1.18539  0.101031  0.001932 -0.000853    52.283
   0.31313  0.69568  0.07308  1.18534  0.096679  0.001942 -0.000849    49.770
   0.32994  0.67915  0.07616  1.18527  0.092340  0.001953 -0.000845    47.274
   0.34670  0.66266  0.07911  1.18518  0.088016  0.001965 -0.000840    44.795
   0.36339  0.64620  0.08193  1.18509  0.083732  0.001977 -0.000836    42.356
   0.38005  0.62976  0.08462  1.18499  0.079489  0.001989 -0.000831    39.960
   0.39672  0.61329  0.08718  1.18488  0.075289  0.002002 -0.000827    37.611
   0.41338  0.59681  0.08962  1.18476  0.071126  0.002015 -0.000823    35.306
   0.42997  0.58038  0.09191  1.18463  0.067015  0.002028 -0.000818    33.053
   0.44649  0.56400  0.09406  1.18449  0.062980  0.002040 -0.000814    30.868
   0.46301  0.54760  0.09605  1.18435  0.059023  0.002053 -0.000811    28.754
   0.47954  0.53117  0.09790  1.18421  0.055124  0.002065 -0.000808    26.698
   0.49603  0.51477  0.09961  1.18407  0.051292  0.002076 -0.000805    24.703
   0.51242  0.49845  0.10115  1.18393  0.047561  0.002087 -0.000803    22.788
   0.52875  0.48218  0.10252  1.18382  0.043946  0.002097 -0.000801    20.959
   0.54509  0.46588  0.10371  1.18373  0.040430  0.002105 -0.000801    19.208
   0.56144  0.44957  0.10475  1.18367  0.037007  0.002112 -0.000802    17.526
   0.57774  0.43329  0.10561  1.18367  0.033693  0.002116 -0.000804    15.922
   0.59394  0.41711  0.10630  1.18376  0.030520  0.002118 -0.000808    14.407
   0.61007  0.40098  0.10679  1.18395  0.027481  0.002118 -0.000815    12.978
   0.62617  0.38489  0.10708  1.18432  0.024593  0.002113 -0.000825    11.640
   0.64227  0.36879  0.10718  1.18493  0.021868  0.002103 -0.000840    10.396
   0.65836  0.35270  0.10708  1.18586  0.019275  0.002089 -0.000861     9.227
   0.67432  0.33674  0.10680  1.18722  0.016853  0.002068 -0.000891     8.148
   0.69010  0.32097  0.10629  1.18919  0.014641  0.002041 -0.000934     7.175
   0.70583  0.30526  0.10554  1.19203  0.012662  0.002004 -0.000996     6.319
   0.72167  0.28945  0.10454  1.19601  0.010883  0.001957 -0.001069     5.561
   0.73747  0.27369  0.10335  1.20145  0.009280  0.001900 -0.001061     4.885
   0.75302  0.25820  0.10195  1.20856  0.007886  0.001832 -0.000766     4.304
   0.76841  0.24291  0.10027  1.21721  0.006764  0.001757 -0.000043     3.850
   0.78386  0.22758  0.09831  1.22760  0.005877  0.001672  0.001030     3.515
   0.79934  0.21226  0.09610  1.23949  0.005131  0.001579  0.002457     3.250
   0.81467  0.19713  0.09366  1.25189  0.004535  0.001484  0.004058     3.055
   0.82983  0.18221  0.09095  1.26374  0.004069  0.001394  0.005652     2.919
   0.84493  0.16741  0.08797  1.27433  0.003713  0.001309  0.007028     2.836
   0.85995  0.15275  0.08473  1.28421  0.003391  0.001227  0.008532     2.764
   0.87475  0.13836  0.08125  1.29281  0.003111  0.001148  0.010029     2.710
   0.88915  0.12444  0.07757  1.30045  0.002834  0.001070  0.011941     2.648
   0.90314  0.11101  0.07364  1.30526  0.002619  0.001000  0.013438     2.618
   0.91683  0.09797  0.06946  1.30833  0.002441  0.000934  0.014514     2.614
   0.92993  0.08560  0.06517  1.31194  0.002225  0.000863  0.016643     2.578
   0.94206  0.07425  0.06087  1.31344  0.001999  0.000795  0.019853     2.516
   0.95332  0.06387  0.05649  1.30849  0.001876  0.000741  0.020753     2.530
   0.96371  0.05444  0.05215  1.30468  0.001749  0.000686  0.021730     2.549
   0.97301  0.04611  0.04801  1.30280  0.001582  0.000627  0.024691     2.523
   0.98119  0.03891  0.04412  1.29793  0.001433  0.000574  0.027906     2.498
   0.98837  0.03273  0.04046  1.28979  0.001303  0.000526  0.031156     2.477
   0.99470  0.02743  0.03701  1.27853  0.001181  0.000482  0.035057     2.450
   1.00030  0.02288  0.03375  1.26269  0.001075  0.000443  0.039059     2.424
   1.00527  0.01898  0.03066  1.24224  0.000991  0.000410  0.041993     2.417
   1.00973  0.01561  0.02774  1.21918  0.000904  0.000378  0.046182     2.395
   1.01375  0.01272  0.02495  1.19025  0.000824  0.000349  0.050940     2.365
   1.01739  0.01024  0.02228  1.15405  0.000764  0.000324  0.053797     2.355
   1.02073  0.00811  0.01971  1.11366  0.000708  0.000301  0.056328     2.349
   1.02380  0.00630  0.01724  1.06649  0.000643  0.000279  0.062184     2.302
   1.02664  0.00476  0.01485  1.00694  0.000609  0.000264  0.061946     2.302
   1.02926  0.00350  0.01255  0.94405  0.000570  0.000249  0.062861     2.287
   1.03171  0.00246  0.01033  0.87304  0.000536  0.000237  0.063240     2.262
   1.03400  0.00163  0.00819  0.79492  0.000518  0.000229  0.059471     2.265
   1.03618  0.00098  0.00612  0.71680  0.000497  0.000218  0.055157     2.278
   1.03826  0.00048  0.00410  0.63446  0.000464  0.000205  0.053203     2.261
   1.04024  0.00015  0.00214  0.54462  0.000435  0.000190  0.047294     2.292
   1.04215  0.00001  0.00024  0.43929  0.000384  0.000172  0.045295     2.239
   1.04400  0.00012 -0.00161  0.30645  0.000370  0.000165  0.032805     2.240
   1.04587  0.00052 -0.00343  0.15986  0.000355  0.000159  0.018001     2.230
   1.04780  0.00123 -0.00524 -0.00206  0.000355  0.000159  0.000238     2.230
   1.04986  0.00223 -0.00703 -0.14024  0.000417  0.000187  0.013476     2.228
   1.05205  0.00354 -0.00879 -0.27256  0.000419  0.000188  0.026064     2.229
   1.05438  0.00514 -0.01048 -0.37752  0.000496  0.000216  0.028548     2.300
   1.05689  0.00705 -0.01212 -0.46625  0.000529  0.000236  0.034779     2.244
   1.05960  0.00924 -0.01371 -0.53275  0.000631  0.000269  0.030481     2.341
   1.06254  0.01171 -0.01530 -0.58890  0.000676  0.000296  0.033197     2.283
   1.06576  0.01450 -0.01689 -0.64061  0.000746  0.000322  0.031807     2.313
   1.06931  0.01766 -0.01852 -0.68518  0.000816  0.000351  0.030872     2.321
   1.07328  0.02125 -0.02021 -0.72553  0.000889  0.000382  0.029784     2.329
   1.07773  0.02534 -0.02197 -0.76420  0.000956  0.000411  0.029235     2.326
   1.08275  0.03002 -0.02380 -0.80218  0.001024  0.000440  0.028656     2.326
   1.08845  0.03539 -0.02569 -0.83759  0.001107  0.000473  0.027323     2.340
   1.09493  0.04158 -0.02763 -0.87000  0.001201  0.000510  0.025849     2.352
   1.10237  0.04875 -0.02960 -0.89768  0.001321  0.000555  0.023659     2.378
   1.11095  0.05710 -0.03158 -0.91995  0.001466  0.000609  0.021241     2.406
   1.12083  0.06678 -0.03358 -0.93707  0.001635  0.000672  0.018861     2.434
   1.13204  0.07781 -0.03556 -0.95507  0.001759  0.000729  0.018239     2.413
   1.14448  0.09010 -0.03747 -0.96935  0.001939  0.000795  0.016355     2.439
   1.15809  0.10359 -0.03926 -0.98116  0.002113  0.000863  0.015026     2.450
   1.17266  0.11806 -0.04096 -0.99222  0.002269  0.000927  0.014193     2.447
   1.18781  0.13314 -0.04249 -1.00332  0.002403  0.000986  0.013701     2.437
   1.20335  0.14862 -0.04385 -1.01298  0.002550  0.001045  0.012978     2.441
   1.21923  0.16445 -0.04503 -1.02133  0.002698  0.001103  0.012299     2.446
   1.23540  0.18059 -0.04604 -1.02801  0.002856  0.001162  0.011548     2.459
   1.25175  0.19691 -0.04691 -1.03515  0.002970  0.001213  0.011297     2.449
   1.26813  0.21328 -0.04763 -1.04172  0.003089  0.001262  0.010952     2.447
   1.28457  0.22971 -0.04819 -1.04757  0.003212  0.001311  0.010562     2.449
   1.30115  0.24629 -0.04860 -1.05231  0.003350  0.001362  0.010070     2.459
   1.31783  0.26296 -0.04890 -1.05727  0.003457  0.001408  0.009837     2.456
   1.33448  0.27961 -0.04908 -1.06213  0.003557  0.001451  0.009644     2.452
   1.35110  0.29624 -0.04912 -1.06628  0.003671  0.001495  0.009343     2.456
   1.36778  0.31291 -0.04903 -1.07000  0.003786  0.001538  0.009050     2.461
   1.38450  0.32963 -0.04882 -1.07355  0.003892  0.001581  0.008815     2.462
   1.40120  0.34633 -0.04849 -1.07676  0.003999  0.001622  0.008579     2.465
   1.41786  0.36298 -0.04803 -1.07962  0.004106  0.001663  0.008342     2.469
   1.43449  0.37961 -0.04745 -1.08176  0.004232  0.001706  0.008021     2.480
   1.45114  0.39623 -0.04673 -1.08381  0.004344  0.001748  0.007787     2.485
   1.46777  0.41285 -0.04588 -1.08490  0.004487  0.001794  0.007415     2.501
   1.48439  0.42943 -0.04489 -1.08564  0.004626  0.001839  0.007089     2.515
   1.50097  0.44597 -0.04378 -1.08579  0.004779  0.001887  0.006734     2.533
   1.51751  0.46247 -0.04253 -1.08513  0.004957  0.001938  0.006310     2.558
   1.53401  0.47892 -0.04112 -1.08369  0.005159  0.001992  0.005845     2.590
   1.55050  0.49532 -0.03957 -1.08124  0.005405  0.002053  0.005294     2.633
   1.56702  0.51176 -0.03785 -1.07777  0.005702  0.002119  0.004668     2.691
   1.58368  0.52831 -0.03597 -1.07341  0.006054  0.002191  0.004002     2.763
   1.60055  0.54506 -0.03395 -1.06852  0.006446  0.002267  0.003361     2.843
   1.61761  0.56199 -0.03181 -1.06345  0.006854  0.002344  0.002803     2.924
   1.63483  0.57906 -0.02959 -1.05832  0.007275  0.002421  0.002318     3.005
   1.65218  0.59626 -0.02732 -1.05330  0.007695  0.002496  0.001918     3.083
   1.66962  0.61355 -0.02500 -1.04845  0.008105  0.002570  0.001594     3.154
   1.68712  0.63090 -0.02268 -1.04382  0.008496  0.002641  0.001339     3.217
   1.70462  0.64824 -0.02037 -1.03944  0.008861  0.002710  0.001144     3.269
   1.72205  0.66552 -0.01809 -1.03528  0.009200  0.002777  0.000993     3.313
   1.73939  0.68272 -0.01585 -1.03135  0.009512  0.002842  0.000880     3.347
   1.75663  0.69982 -0.01367 -1.02766  0.009786  0.002904  0.000805     3.370
   1.77378  0.71684 -0.01156 -1.02420  0.010013  0.002963  0.000765     3.379
   1.79085  0.73379 -0.00953 -1.02096  0.010193  0.003020  0.000758     3.375
   1.80784  0.75067 -0.00760 -1.01795  0.010327  0.003075  0.000779     3.358
   1.82474  0.76746 -0.00576 -1.01518  0.010407  0.003127  0.000829     3.329
   1.84154  0.78418 -0.00404 -1.01269  0.010433  0.003175  0.000911     3.286
   1.85823  0.80079 -0.00245 -1.01051  0.010398  0.003219  0.001029     3.230
   1.87481  0.81731 -0.00100 -1.00872  0.010303  0.003258  0.001187     3.162
   1.89126  0.83371  0.00030 -1.00743  0.010137  0.003290  0.001395     3.081
   1.90759  0.85000  0.00143 -1.00678  0.009901  0.003313  0.001663     2.989
   1.92381  0.86619  0.00238 -1.00696  0.009595  0.003324  0.002002     2.886
   1.93987  0.88223  0.00314 -1.00817  0.009226  0.003323  0.002421     2.777
   1.95573  0.89808  0.00370 -1.01075  0.008792  0.003304  0.002941     2.661
   1.97131  0.91366  0.00404 -1.01507  0.008298  0.003264  0.003588     2.542
   1.98653  0.92887  0.00415 -1.02177  0.007735  0.003198  0.004414     2.419
   2.00124  0.94358  0.00401 -1.03160  0.007109  0.003101  0.005482     2.292
   2.01526  0.95760  0.00361 -1.04549  0.006433  0.002970  0.006878     2.166
   2.02837  0.97069  0.00296 -1.06510  0.005700  0.002796  0.008789     2.039
   2.04040  0.98268  0.00205 -1.09273  0.004921  0.002575  0.011514     1.911
   2.05125  0.99348  0.00090 -1.13437  0.004061  0.002286  0.015915     1.776
   2.05783  1.00000  0.00000 -1.11851  0.004633  0.002451  0.012710     1.890
   2.05783  1.00010 -0.00002  1.11851  0.187864  0.014105  0.000000    13.319
   2.06446  1.00660 -0.00132  1.11576  0.183538  0.014632  0.000000    12.544
   2.07221  1.01425 -0.00257  1.11270  0.181678  0.015215  0.000000    11.941
   2.08127  1.02321 -0.00385  1.10911  0.179844  0.015901  0.000000    11.310
   2.09186  1.03372 -0.00519  1.10486  0.177898  0.016712  0.000000    10.645
   2.10423  1.04601 -0.00658  1.09984  0.175692  0.017675  0.000000     9.940
   2.11869  1.06040 -0.00804  1.09388  0.173106  0.018821  0.000000     9.197
   2.13560  1.07724 -0.00954  1.08679  0.170017  0.020192  0.000000     8.420
   2.15535  1.09693 -0.01108  1.07831  0.166284  0.021840  0.000000     7.614
   2.17845  1.11997 -0.01264  1.06813  0.161743  0.023831  0.000000     6.787
   2.20544  1.14692 -0.01418  1.05581  0.156204  0.026261  0.000000     5.948
   2.23698  1.17843 -0.01566  1.04070  0.149463  0.029270  0.000000     5.106
   2.27386  1.21528 -0.01702  1.02167  0.141338  0.033114  0.000000     4.268
   2.31695  1.25836 -0.01820  0.99625  0.131809  0.038372  0.000000     3.435
   2.36732  1.30872 -0.01910  0.97232  0.120384  0.043440  0.000000     2.771
   2.42619  1.36759 -0.01960  0.95525  0.107490  0.047066  0.000000     2.284
   2.49501  1.43640 -0.01955  0.94583  0.094243  0.049019  0.000000     1.923
   2.57543  1.51682 -0.01878  0.94404  0.081858  0.049372  0.000000     1.658
   2.66944  1.61081 -0.01707  0.94827  0.071292  0.048593  0.000000     1.467
   2.77931  1.72065 -0.01415  0.95591  0.062925  0.047285  0.000000     1.331
   2.90773  1.84899 -0.00971  0.96471  0.056589  0.045884  0.000000     1.233
   3.05782  1.99895 -0.00337  0.98432  0.049819  0.043028  0.000000     1.158
