#    s        x        y     Ue/Vinf    Dstar     Theta      Cf       H
   0.00000  1.00000  0.00000  1.09623  0.133850  0.002184 -0.000264    61.273
   0.00668  0.99360  0.00192  1.09606  0.130433  0.002208 -0.000689    59.077
   0.01807  0.98272  0.00530  1.09600  0.127185  0.002218 -0.000686    57.330
   0.03106  0.97032  0.00914  1.09594  0.123631  0.002229 -0.000683    55.455
   0.04516  0.95680  0.01317  1.09589  0.119973  0.002239 -0.000680    53.573
   0.06006  0.94246  0.01720  1.09585  0.116316  0.002248 -0.000678    51.739
   0.07565  0.92739  0.02118  1.09582  0.112689  0.002255 -0.000676    49.963
   0.09186  0.91167  0.02516  1.09580  0.109045  0.002262 -0.000674    48.206
   0.10852  0.89549  0.02915  1.09578  0.105340  0.002269 -0.000673    46.429
   0.12544  0.87905  0.03313  1.09575  0.101587  0.002276 -0.000671    44.631
   0.14250  0.86245  0.03708  1.09572  0.097798  0.002284 -0.000669    42.817
   0.15964  0.84577  0.04099  1.09568  0.093983  0.002293 -0.000667    40.993
   0.17681  0.82904  0.04484  1.09563  0.090148  0.002302 -0.000665    39.163
   0.19398  0.81229  0.04864  1.09557  0.086301  0.002312 -0.000662    37.332
   0.21115  0.79553  0.05238  1.09550  0.082448  0.002322 -0.000660    35.506
   0.22833  0.77875  0.05606  1.09542  0.078582  0.002333 -0.000657    33.681
   0.24546  0.76200  0.05967  1.09533  0.074712  0.002345 -0.000655    31.864
   0.26249  0.74535  0.06319  1.09522  0.070866  0.002357 -0.000652    30.071
   0.27941  0.72877  0.06660  1.09511  0.067070  0.002369 -0.000650    28.317
   0.29629  0.71222  0.06990  1.09500  0.063324  0.002380 -0.000648    26.604
   0.31313  0.69568  0.07308  1.09489  0.059629  0.002392 -0.000646    24.932
   0.32994  0.67915  0.07616  1.09478  0.055996  0.002403 -0.000644    23.307
   0.34670  0.66266  0.07911  1.09467  0.052427  0.002413 -0.000643    21.728
   0.36339  0.64620  0.08193  1.09457  0.048938  0.002422 -0.000642    20.204
   0.38005  0.62976  0.08462  1.09450  0.045538  0.002430 -0.000642    18.737
   0.39672  0.61329  0.08718  1.09444  0.042226  0.002437 -0.000643    17.326
   0.41338  0.59681  0.08962  1.09443  0.038996  0.002442 -0.000644    15.967
   0.42997  0.58038  0.09191  1.09446  0.035861  0.002446 -0.000647    14.664
   0.44649  0.56400  0.09406  1.09456  0.032853  0.002446 -0.000651    13.430
   0.46301  0.54760  0.09605  1.09477  0.029959  0.002444 -0.000656    12.258
   0.47954  0.53117  0.09790  1.09510  0.027182  0.002438 -0.000664    11.147
   0.49603  0.51477  0.09961  1.09560  0.024515  0.002429 -0.000675    10.092
   0.51242  0.49845  0.10115  1.09632  0.021997  0.002415 -0.000690     9.107
   0.52875  0.48218  0.10252  1.09736  0.019649  0.002396 -0.000710     8.202
   0.54509  0.46588  0.10371  1.09880  0.017452  0.002370 -0.000738     7.363
   0.56144  0.44957  0.10475  1.10076  0.015409  0.002337 -0.000776     6.592
   0.57774  0.43329  0.10561  1.10340  0.013519  0.002297 -0.000827     5.885
   0.59394  0.41711  0.10630  1.10690  0.011830  0.002248 -0.000860     5.262
   0.61007  0.40098  0.10679  1.11145  0.010328  0.002190 -0.000810     4.716
   0.62617  0.38489  0.10708  1.11716  0.009010  0.002123 -0.000558     4.243
   0.64227  0.36879  0.10718  1.12392  0.007894  0.002049 -0.000038     3.852
   0.65836  0.35270  0.10708  1.13193  0.006927  0.001966  0.000782     3.524
   0.67432  0.33674  0.10680  1.14103  0.006114  0.001875  0.001855     3.261
   0.69010  0.32097  0.10629  1.15057  0.005451  0.001782  0.003081     3.059
   0.70583  0.30526  0.10554  1.15949  0.004962  0.001694  0.004186     2.930
   0.72167  0.28945  0.10454  1.16791  0.004541  0.001608  0.005349     2.825
   0.73747  0.27369  0.10335  1.17547  0.004172  0.001525  0.006581     2.736
   0.75302  0.25820  0.10195  1.18196  0.003833  0.001446  0.007992     2.651
   0.76841  0.24291  0.10027  1.18601  0.003575  0.001377  0.009161     2.597
   0.78386  0.22758  0.09831  1.18748  0.003397  0.001317  0.009841     2.580
   0.79934  0.21226  0.09610  1.18900  0.003180  0.001252  0.011004     2.540
   0.81467  0.19713  0.09366  1.18841  0.002994  0.001193  0.012056     2.511
   0.82983  0.18221  0.09095  1.18571  0.002839  0.001137  0.012881     2.496
   0.84493  0.16741  0.08797  1.18169  0.002693  0.001083  0.013672     2.487
   0.85995  0.15275  0.08473  1.17651  0.002548  0.001028  0.014503     2.479
   0.87475  0.13836  0.08125  1.17028  0.002393  0.000971  0.015565     2.466
   0.88915  0.12444  0.07757  1.16255  0.002217  0.000911  0.017290     2.432
   0.90314  0.11101  0.07364  1.15015  0.002097  0.000861  0.018027     2.435
   0.91683  0.09797  0.06946  1.13683  0.001970  0.000808  0.018892     2.439
   0.92993  0.08560  0.06517  1.12265  0.001819  0.000750  0.020489     2.426
   0.94206  0.07425  0.06087  1.10510  0.001646  0.000693  0.023402     2.377
   0.95332  0.06387  0.05649  1.07933  0.001546  0.000650  0.024245     2.380
   0.96371  0.05444  0.05215  1.05326  0.001456  0.000605  0.024541     2.404
   0.97301  0.04611  0.04801  1.02905  0.001326  0.000555  0.026703     2.390
   0.98119  0.03891  0.04412  1.00081  0.001205  0.000509  0.029194     2.368
   0.98837  0.03273  0.04046  0.96778  0.001106  0.000469  0.030990     2.360
   0.99470  0.02743  0.03701  0.93182  0.001015  0.000431  0.032717     2.354
   1.00030  0.02288  0.03375  0.89063  0.000916  0.000396  0.036151     2.310
   1.00527  0.01898  0.03066  0.84151  0.000864  0.000371  0.035578     2.328
   1.00973  0.01561  0.02774  0.79253  0.000790  0.000342  0.037236     2.311
   1.01375  0.01272  0.02495  0.73616  0.000726  0.000317  0.038227     2.294
   1.01739  0.01024  0.02228  0.67094  0.000672  0.000297  0.038708     2.265
   1.02073  0.00811  0.01971  0.60211  0.000643  0.000279  0.034815     2.308
   1.02380  0.00630  0.01724  0.52902  0.000571  0.000254  0.036560     2.246
   1.02664  0.00476  0.01485  0.44021  0.000550  0.000243  0.031164     2.259
   1.02926  0.00350  0.01255  0.34963  0.000513  0.000228  0.026870     2.247
   1.03171  0.00246  0.01033  0.24979  0.000496  0.000224  0.020376     2.216
   1.03400  0.00163  0.00819  0.15216  0.000491  0.000218  0.012097     2.256
   1.03618  0.00098  0.00612  0.04598  0.000416  0.000187  0.004426     2.230
   1.03826  0.00048  0.00410 -0.08052  0.000416  0.000187  0.007741     2.230
   1.04024  0.00015  0.00214 -0.20814  0.000400  0.000180  0.020937     2.223
   1.04215  0.00001  0.00024 -0.36397  0.000348  0.000158  0.043134     2.196
   1.04400  0.00012 -0.00161 -0.52061  0.000359  0.000159  0.056616     2.258
   1.04587  0.00052 -0.00343 -0.66797  0.000361  0.000162  0.074271     2.225
   1.04780  0.00123 -0.00524 -0.80495  0.000386  0.000170  0.080661     2.269
   1.04986  0.00223 -0.00703 -0.91278  0.000428  0.000186  0.079906     2.300
   1.05205  0.00354 -0.00879 -0.99488  0.000482  0.000207  0.075628     2.326
   1.05438  0.00514 -0.01048 -1.05238  0.000551  0.000233  0.067155     2.367
   1.05689  0.00705 -0.01212 -1.09200  0.000628  0.000262  0.059484     2.396
   1.05960  0.00924 -0.01371 -1.11018  0.000746  0.000300  0.046516     2.483
   1.06254  0.01171 -0.01530 -1.12480  0.000825  0.000335  0.043537     2.463
   1.06576  0.01450 -0.01689 -1.13852  0.000907  0.000368  0.040156     2.462
   1.06931  0.01766 -0.01852 -1.14902  0.001002  0.000404  0.035984     2.480
   1.07328  0.02125 -0.02021 -1.15870  0.001091  0.000440  0.033358     2.479
   1.07773  0.02534 -0.02197 -1.17043  0.001163  0.000473  0.032316     2.458
   1.08275  0.03002 -0.02380 -1.18165  0.001252  0.000509  0.030231     2.460
   1.08845  0.03539 -0.02569 -1.19203  0.001350  0.000547  0.028144     2.465
   1.09493  0.04158 -0.02763 -1.20109  0.001460  0.000589  0.025936     2.476
   1.10237  0.04875 -0.02960 -1.20583  0.001612  0.000641  0.022609     2.515
   1.11095  0.05710 -0.03158 -1.20636  0.001795  0.000701  0.019344     2.560
   1.12083  0.06678 -0.03358 -1.20429  0.001992  0.000768  0.016774     2.592
   1.13204  0.07781 -0.03556 -1.20172  0.002180  0.000838  0.015118     2.602
   1.14448  0.09010 -0.03747 -1.19791  0.002392  0.000912  0.013435     2.622
   1.15809  0.10359 -0.03926 -1.19323  0.002614  0.000990  0.011978     2.641
   1.17266  0.11806 -0.04096 -1.18961  0.002802  0.001064  0.011233     2.634
   1.18781  0.13314 -0.04249 -1.18775  0.002954  0.001131  0.010920     2.611
   1.20335  0.14862 -0.04385 -1.18550  0.003136  0.001200  0.010228     2.614
   1.21923  0.16445 -0.04503 -1.18357  0.003306  0.001265  0.009699     2.613
   1.23540  0.18059 -0.04604 -1.18155  0.003480  0.001330  0.009160     2.617
   1.25175  0.19691 -0.04691 -1.18024  0.003626  0.001390  0.008862     2.609
   1.26813  0.21328 -0.04763 -1.17942  0.003759  0.001446  0.008633     2.600
   1.28457  0.22971 -0.04819 -1.17836  0.003906  0.001502  0.008291     2.601
   1.30115  0.24629 -0.04860 -1.17693  0.004067  0.001559  0.007881     2.609
   1.31783  0.26296 -0.04890 -1.17571  0.004211  0.001613  0.007587     2.610
   1.33448  0.27961 -0.04908 -1.17504  0.004328  0.001663  0.007443     2.603
   1.35110  0.29624 -0.04912 -1.17407  0.004463  0.001713  0.007194     2.605
   1.36778  0.31291 -0.04903 -1.17270  0.004616  0.001765  0.006870     2.615
   1.38450  0.32963 -0.04882 -1.17163  0.004745  0.001814  0.006669     2.616
   1.40120  0.34633 -0.04849 -1.17011  0.004897  0.001865  0.006377     2.626
   1.41786  0.36298 -0.04803 -1.16857  0.005043  0.001914  0.006122     2.635
   1.43449  0.37961 -0.04745 -1.16657  0.005212  0.001966  0.005800     2.651
   1.45114  0.39623 -0.04673 -1.16412  0.005401  0.002020  0.005437     2.674
   1.46777  0.41285 -0.04588 -1.16128  0.005606  0.002076  0.005055     2.701
   1.48439  0.42943 -0.04489 -1.15796  0.005838  0.002134  0.004635     2.736
   1.50097  0.44597 -0.04378 -1.15418  0.006098  0.002195  0.004187     2.778
   1.51751  0.46247 -0.04253 -1.14986  0.006401  0.002260  0.003693     2.833
   1.53401  0.47892 -0.04112 -1.14497  0.006767  0.002329  0.003139     2.906
   1.55050  0.49532 -0.03957 -1.13961  0.007204  0.002401  0.002544     3.000
   1.56702  0.51176 -0.03785 -1.13390  0.007738  0.002478  0.001912     3.123
   1.58368  0.52831 -0.03597 -1.12816  0.008367  0.002554  0.001298     3.275
   1.60055  0.54506 -0.03395 -1.12267  0.009075  0.002629  0.000754     3.452
   1.61761  0.56199 -0.03181 -1.11761  0.009841  0.002699  0.000311     3.646
   1.63483  0.57906 -0.02959 -1.11303  0.010640  0.002765 -0.000023     3.849
   1.65218  0.59626 -0.02732 -1.10888  0.011464  0.002826 -0.000262     4.057
   1.66962  0.61355 -0.02500 -1.10506  0.012289  0.002884 -0.000418     4.261
   1.68712  0.63090 -0.02268 -1.10152  0.013097  0.002940 -0.000512     4.455
   1.70462  0.64824 -0.02037 -1.09826  0.013873  0.002994 -0.000565     4.634
   1.72205  0.66552 -0.01809 -1.09527  0.014609  0.003045 -0.000590     4.798
   1.73939  0.68272 -0.01585 -1.09250  0.015301  0.003094 -0.000599     4.946
   1.75663  0.69982 -0.01367 -1.08993  0.015925  0.003141 -0.000599     5.071
   1.77378  0.71684 -0.01156 -1.08751  0.016475  0.003187 -0.000594     5.170
   1.79085  0.73379 -0.00953 -1.08521  0.016941  0.003231 -0.000586     5.243
   1.80784  0.75067 -0.00760 -1.08299  0.017319  0.003276 -0.000578     5.287
   1.82474  0.76746 -0.00576 -1.08083  0.017596  0.003319 -0.000569     5.301
   1.84154  0.78418 -0.00404 -1.07872  0.017769  0.003363 -0.000560     5.284
   1.85823  0.80079 -0.00245 -1.07663  0.017824  0.003406 -0.000551     5.232
   1.87481  0.81731 -0.00100 -1.07455  0.017755  0.003450 -0.000541     5.146
   1.89126  0.83371  0.00030 -1.07246  0.017549  0.003494 -0.000527     5.022
   1.90759  0.85000  0.00143 -1.07036  0.017199  0.003539 -0.000505     4.861
   1.92381  0.86619  0.00238 -1.06824  0.016699  0.003583 -0.000465     4.661
   1.93987  0.88223  0.00314 -1.06613  0.016055  0.003626 -0.000392     4.427
   1.95573  0.89808  0.00370 -1.06405  0.015263  0.003669 -0.000261     4.160
   1.97131  0.91366  0.00404 -1.06210  0.014329  0.003708 -0.000031     3.864
   1.98653  0.92887  0.00415 -1.06079  0.013253  0.003736  0.000350     3.548
   2.00124  0.94358  0.00401 -1.06100  0.012058  0.003736  0.000938     3.228
   2.01526  0.95760  0.00361 -1.06396  0.010779  0.003692  0.001794     2.920
   2.02837  0.97069  0.00296 -1.07117  0.009450  0.003588  0.002997     2.634
   2.04040  0.98268  0.00205 -1.08425  0.008119  0.003416  0.004657     2.376
   2.05125  0.99348  0.00090 -1.10507  0.006822  0.003175  0.006962     2.149
   2.05783  1.00000  0.00000 -1.09623  0.007457  0.003302  0.005733     2.259
   2.05783  1.00010 -0.00002  1.09623  0.141308  0.005486  0.000000    25.756
   2.06446  1.00660 -0.00133  1.09320  0.136091  0.005903  0.000000    23.054
   2.07221  1.01424 -0.00262  1.08980  0.133653  0.006362  0.000000    21.009
   2.08127  1.02319 -0.00398  1.08571  0.131213  0.006911  0.000000    18.987
   2.09186  1.03368 -0.00543  1.08076  0.128615  0.007572  0.000000    16.986
   2.10423  1.04596 -0.00698  1.07475  0.125686  0.008371  0.000000    15.015
   2.11869  1.06032 -0.00864  1.06744  0.122289  0.009339  0.000000    13.094
   2.13560  1.07713 -0.01043  1.05868  0.118267  0.010498  0.000000    11.266
   2.15535  1.09680 -0.01233  1.04793  0.113468  0.011913  0.000000     9.525
   2.17845  1.11980 -0.01437  1.03465  0.107706  0.013655  0.000000     7.887
   2.20544  1.14670 -0.01653  1.01805  0.100773  0.015828  0.000000     6.367
   2.23698  1.17817 -0.01881  0.99677  0.092478  0.018610  0.000000     4.969
   2.27386  1.21496 -0.02119  0.96763  0.082772  0.022453  0.000000     3.686
   2.31695  1.25799 -0.02366  0.93961  0.071538  0.026167  0.000000     2.734
   2.36732  1.30829 -0.02619  0.92386  0.059688  0.028198  0.000000     2.117
   2.42619  1.36711 -0.02874  0.92170  0.048875  0.028458  0.000000     1.717
   2.49501  1.43588 -0.03127  0.93000  0.040328  0.027557  0.000000     1.463
   2.57543  1.51627 -0.03372  0.94282  0.034272  0.026310  0.000000     1.303
   2.66944  1.61024 -0.03601  0.95552  0.030214  0.025191  0.000000     1.199
   2.77931  1.72009 -0.03804  0.96614  0.027534  0.024325  0.000000     1.132
   2.90773  1.84850 -0.03970  0.97447  0.025757  0.023684  0.000000     1.088
   3.05782  1.99859 -0.04086  0.98387  0.024328  0.022996  0.000000     1.058
