#    s        x        y     Ue/Vinf    Dstar     Theta      Cf       H
   0.00000  1.00000  0.00000  1.11747  0.178620  0.010870 -0.000148    16.433
   0.00668  0.99360  0.00192  1.11925  0.175064  0.010554 -0.000152    16.587
   0.01807  0.98272  0.00530  1.12259  0.171303  0.009977 -0.000161    17.169
   0.03106  0.97032  0.00914  1.12665  0.167152  0.009298 -0.000173    17.977
   0.04516  0.95680  0.01317  1.13143  0.162834  0.008524 -0.000189    19.104
   0.06006  0.94246  0.01720  1.13703  0.158463  0.007652 -0.000211    20.709
   0.07565  0.92739  0.02118  1.14354  0.154062  0.006677 -0.000242    23.073
   0.09186  0.91167  0.02516  1.15131  0.149549  0.005564 -0.000291    26.877
   0.10852  0.89549  0.02915  1.16097  0.144804  0.004242 -0.000296    34.139
   0.12544  0.87905  0.03313  1.17496  0.139555  0.002376 -0.000304    58.724
   0.14250  0.86245  0.03708  1.17875  0.135374  0.001922 -0.000850    70.422
   0.15964  0.84577  0.04099  1.17881  0.131466  0.001921 -0.000851    68.423
   0.17681  0.82904  0.04484  1.17885  0.127445  0.001922 -0.000851    66.304
   0.19398  0.81229  0.04864  1.17887  0.123337  0.001925 -0.000850    64.087
   0.21115  0.79553  0.05238  1.17889  0.119158  0.001928 -0.000848    61.793
   0.22833  0.77875  0.05606  1.17889  0.114908  0.001934 -0.000846    59.426
   0.24546  0.76200  0.05967  1.17887  0.110601  0.001940 -0.000844    56.996
   0.26249  0.74535  0.06319  1.17884  0.106271  0.001949 -0.000841    54.536
   0.27941  0.72877  0.06660  1.17880  0.101946  0.001958 -0.000837    52.073
   0.29629  0.71222  0.06990  1.17874  0.097624  0.001968 -0.000833    49.612
   0.31313  0.69568  0.07308  1.17867  0.093312  0.001979 -0.000829    47.163
   0.32994  0.67915  0.07616  1.17859  0.089020  0.001990 -0.000825    44.737
   0.34670  0.66266  0.07911  1.17850  0.084750  0.002002 -0.000821    42.336
   0.36339  0.64620  0.08193  1.17840  0.080519  0.002014 -0.000817    39.975
   0.38005  0.62976  0.08462  1.17829  0.076341  0.002027 -0.000812    37.666
   0.39672  0.61329  0.08718  1.17817  0.072202  0.002040 -0.000808    35.401
   0.41338  0.59681  0.08962  1.17805  0.068106  0.002052 -0.000804    33.184
   0.42997  0.58038  0.09191  1.17791  0.064066  0.002065 -0.000800    31.020
   0.44649  0.56400  0.09406  1.17777  0.060109  0.002078 -0.000796    28.928
   0.46301  0.54760  0.09605  1.17763  0.056226  0.002090 -0.000793    26.903
   0.47954  0.53117  0.09790  1.17749  0.052412  0.002101 -0.000790    24.940
   0.49603  0.51477  0.09961  1.17736  0.048669  0.002112 -0.000788    23.039
   0.51242  0.49845  0.10115  1.17723  0.045022  0.002123 -0.000787    21.211
   0.52875  0.48218  0.10252  1.17714  0.041506  0.002131 -0.000786    19.477
   0.54509  0.46588  0.10371  1.17708  0.038079  0.002138 -0.000787    17.810
   0.56144  0.44957  0.10475  1.17706  0.034764  0.002143 -0.000789    16.222
   0.57774  0.43329  0.10561  1.17712  0.031556  0.002146 -0.000793    14.705
   0.59394  0.41711  0.10630  1.17728  0.028487  0.002146 -0.000799    13.275
   0.61007  0.40098  0.10679  1.17759  0.025574  0.002142 -0.000807    11.937
   0.62617  0.38489  0.10708  1.17811  0.022803  0.002134 -0.000820    10.683
   0.64227  0.36879  0.10718  1.17893  0.020193  0.002121 -0.000839     9.518
   0.65836  0.35270  0.10708  1.18014  0.017740  0.002103 -0.000865     8.437
   0.67432  0.33674  0.10680  1.18188  0.015449  0.002077 -0.000903     7.438
   0.69010  0.32097  0.10629  1.18436  0.013368  0.002044 -0.000958     6.542
   0.70583  0.30526  0.10554  1.18785  0.011534  0.002000 -0.001029     5.766
   0.72167  0.28945  0.10454  1.19270  0.009919  0.001947 -0.001060     5.095
   0.73747  0.27369  0.10335  1.19912  0.008449  0.001882 -0.000896     4.489
   0.75302  0.25820  0.10195  1.20710  0.007205  0.001809 -0.000313     3.982
   0.76841  0.24291  0.10027  1.21668  0.006209  0.001728  0.000702     3.594
   0.78386  0.22758  0.09831  1.22775  0.005443  0.001638  0.001946     3.323
   0.79934  0.21226  0.09610  1.23978  0.004797  0.001544  0.003468     3.108
   0.81467  0.19713  0.09366  1.25160  0.004285  0.001451  0.005058     2.953
   0.82983  0.18221  0.09095  1.26238  0.003884  0.001364  0.006563     2.846
   0.84493  0.16741  0.08797  1.27182  0.003562  0.001283  0.007926     2.776
   0.85995  0.15275  0.08473  1.28021  0.003278  0.001205  0.009298     2.721
   0.87475  0.13836  0.08125  1.28750  0.003017  0.001129  0.010768     2.674
   0.88915  0.12444  0.07757  1.29375  0.002756  0.001053  0.012667     2.617
   0.90314  0.11101  0.07364  1.29689  0.002559  0.000986  0.014039     2.594
   0.91683  0.09797  0.06946  1.29842  0.002398  0.000922  0.014912     2.599
   0.92993  0.08560  0.06517  1.30119  0.002176  0.000851  0.017288     2.556
   0.94206  0.07425  0.06087  1.30082  0.001963  0.000785  0.020352     2.500
   0.95332  0.06387  0.05649  1.29429  0.001843  0.000733  0.021244     2.515
   0.96371  0.05444  0.05215  1.28889  0.001715  0.000678  0.022407     2.528
   0.97301  0.04611  0.04801  1.28473  0.001564  0.000621  0.024790     2.517
   0.98119  0.03891  0.04412  1.27901  0.001410  0.000567  0.028307     2.485
   0.98837  0.03273  0.04046  1.26904  0.001276  0.000520  0.032060     2.455
   0.99470  0.02743  0.03701  1.25450  0.001171  0.000479  0.034869     2.445
   1.00030  0.02288  0.03375  1.23771  0.001066  0.000440  0.038666     2.423
   1.00527  0.01898  0.03066  1.21632  0.000973  0.000405  0.042611     2.400
   1.00973  0.01561  0.02774  1.18986  0.000893  0.000375  0.046114     2.384
   1.01375  0.01272  0.02495  1.15891  0.000822  0.000347  0.049421     2.371
   1.01739  0.01024  0.02228  1.12250  0.000750  0.000321  0.054128     2.339
   1.02073  0.00811  0.01971  1.07789  0.000700  0.000300  0.055661     2.339
   1.02380  0.00630  0.01724  1.02844  0.000642  0.000278  0.059775     2.306
   1.02664  0.00476  0.01485  0.96821  0.000600  0.000262  0.061138     2.289
   1.02926  0.00350  0.01255  0.90294  0.000571  0.000248  0.059261     2.301
   1.03171  0.00246  0.01033  0.83079  0.000523  0.000234  0.063250     2.235
   1.03400  0.00163  0.00819  0.74931  0.000527  0.000229  0.053335     2.300
   1.03618  0.00098  0.00612  0.67208  0.000477  0.000214  0.056045     2.235
   1.03826  0.00048  0.00410  0.58350  0.000472  0.000205  0.046306     2.301
   1.04024  0.00015  0.00214  0.49204  0.000416  0.000186  0.046918     2.238
   1.04215  0.00001  0.00024  0.37988  0.000395  0.000174  0.036774     2.278
   1.04400  0.00012 -0.00161  0.24820  0.000353  0.000159  0.028442     2.218
   1.04587  0.00052 -0.00343  0.09656  0.000376  0.000169  0.010275     2.230
   1.04780  0.00123 -0.00524 -0.04797  0.000376  0.000169  0.005105     2.230
   1.04986  0.00223 -0.00703 -0.19916  0.000380  0.000170  0.020945     2.231
   1.05205  0.00354 -0.00879 -0.32374  0.000446  0.000196  0.027664     2.282
   1.05438  0.00514 -0.01048 -0.42776  0.000480  0.000214  0.035271     2.241
   1.05689  0.00705 -0.01212 -0.50749  0.000566  0.000244  0.032942     2.322
   1.05960  0.00924 -0.01371 -0.57223  0.000617  0.000270  0.035373     2.283
   1.06254  0.01171 -0.01530 -0.62906  0.000685  0.000296  0.034049     2.312
   1.06576  0.01450 -0.01689 -0.67502  0.000762  0.000327  0.032314     2.330
   1.06931  0.01766 -0.01852 -0.71820  0.000820  0.000354  0.032307     2.317
   1.07328  0.02125 -0.02021 -0.75690  0.000899  0.000385  0.030470     2.337
   1.07773  0.02534 -0.02197 -0.79347  0.000968  0.000415  0.029791     2.334
   1.08275  0.03002 -0.02380 -0.82984  0.001034  0.000444  0.029230     2.331
   1.08845  0.03539 -0.02569 -0.86259  0.001126  0.000479  0.027345     2.352
   1.09493  0.04158 -0.02763 -0.89338  0.001214  0.000515  0.026166     2.356
   1.10237  0.04875 -0.02960 -0.91956  0.001336  0.000561  0.023810     2.384
   1.11095  0.05710 -0.03158 -0.94036  0.001483  0.000615  0.021319     2.413
   1.12083  0.06678 -0.03358 -0.95695  0.001645  0.000676  0.019129     2.435
   1.13204  0.07781 -0.03556 -0.97256  0.001791  0.000736  0.017912     2.432
   1.14448  0.09010 -0.03747 -0.98553  0.001962  0.000802  0.016307     2.447
   1.15809  0.10359 -0.03926 -0.99657  0.002134  0.000869  0.015034     2.455
   1.17266  0.11806 -0.04096 -1.00637  0.002299  0.000935  0.014049     2.458
   1.18781  0.13314 -0.04249 -1.01663  0.002430  0.000994  0.013624     2.444
   1.20335  0.14862 -0.04385 -1.02515  0.002586  0.001055  0.012804     2.452
   1.21923  0.16445 -0.04503 -1.03316  0.002723  0.001111  0.012275     2.450
   1.23540  0.18059 -0.04604 -1.03926  0.002885  0.001171  0.011481     2.465
   1.25175  0.19691 -0.04691 -1.04567  0.003006  0.001223  0.011170     2.458
   1.26813  0.21328 -0.04763 -1.05184  0.003121  0.001272  0.010873     2.453
   1.28457  0.22971 -0.04819 -1.05709  0.003250  0.001322  0.010444     2.458
   1.30115  0.24629 -0.04860 -1.06154  0.003384  0.001373  0.009999     2.465
   1.31783  0.26296 -0.04890 -1.06576  0.003504  0.001420  0.009673     2.467
   1.33448  0.27961 -0.04908 -1.07041  0.003596  0.001463  0.009554     2.458
   1.35110  0.29624 -0.04912 -1.07418  0.003712  0.001507  0.009241     2.463
   1.36778  0.31291 -0.04903 -1.07762  0.003826  0.001551  0.008960     2.467
   1.38450  0.32963 -0.04882 -1.08082  0.003935  0.001594  0.008713     2.469
   1.40120  0.34633 -0.04849 -1.08363  0.004047  0.001636  0.008455     2.474
   1.41786  0.36298 -0.04803 -1.08620  0.004155  0.001677  0.008225     2.477
   1.43449  0.37961 -0.04745 -1.08826  0.004274  0.001720  0.007948     2.485
   1.45114  0.39623 -0.04673 -1.08975  0.004403  0.001764  0.007635     2.496
   1.46777  0.41285 -0.04588 -1.09064  0.004543  0.001810  0.007292     2.510
   1.48439  0.42943 -0.04489 -1.09120  0.004682  0.001855  0.006978     2.524
   1.50097  0.44597 -0.04378 -1.09103  0.004842  0.001904  0.006602     2.543
   1.51751  0.46247 -0.04253 -1.09019  0.005021  0.001955  0.006190     2.568
   1.53401  0.47892 -0.04112 -1.08847  0.005232  0.002011  0.005708     2.602
   1.55050  0.49532 -0.03957 -1.08578  0.005486  0.002072  0.005149     2.648
   1.56702  0.51176 -0.03785 -1.08211  0.005792  0.002139  0.004522     2.707
   1.58368  0.52831 -0.03597 -1.07758  0.006155  0.002212  0.003853     2.782
   1.60055  0.54506 -0.03395 -1.07258  0.006556  0.002289  0.003218     2.865
   1.61761  0.56199 -0.03181 -1.06740  0.006978  0.002366  0.002658     2.950
   1.63483  0.57906 -0.02959 -1.06221  0.007413  0.002443  0.002176     3.035
   1.65218  0.59626 -0.02732 -1.05713  0.007850  0.002518  0.001775     3.117
   1.66962  0.61355 -0.02500 -1.05224  0.008276  0.002592  0.001452     3.193
   1.68712  0.63090 -0.02268 -1.04758  0.008683  0.002663  0.001199     3.260
   1.70462  0.64824 -0.02037 -1.04318  0.009063  0.002732  0.001006     3.317
   1.72205  0.66552 -0.01809 -1.03901  0.009418  0.002799  0.000856     3.365
   1.73939  0.68272 -0.01585 -1.03507  0.009743  0.002863  0.000745     3.403
   1.75663  0.69982 -0.01367 -1.03136  0.010030  0.002925  0.000670     3.429
   1.77378  0.71684 -0.01156 -1.02787  0.010270  0.002985  0.000629     3.441
   1.79085  0.73379 -0.00953 -1.02460  0.010458  0.003042  0.000622     3.438
   1.80784  0.75067 -0.00760 -1.02154  0.010599  0.003097  0.000640     3.422
   1.82474  0.76746 -0.00576 -1.01871  0.010683  0.003149  0.000689     3.393
   1.84154  0.78418 -0.00404 -1.01614  0.010711  0.003198  0.000767     3.349
   1.85823  0.80079 -0.00245 -1.01386  0.010676  0.003243  0.000881     3.292
   1.87481  0.81731 -0.00100 -1.01194  0.010575  0.003283  0.001034     3.221
   1.89126  0.83371  0.00030 -1.01050  0.010402  0.003317  0.001237     3.136
   1.90759  0.85000  0.00143 -1.00966  0.010157  0.003342  0.001499     3.039
   1.92381  0.86619  0.00238 -1.00963  0.009836  0.003356  0.001834     2.931
   1.93987  0.88223  0.00314 -1.01061  0.009452  0.003356  0.002247     2.817
   1.95573  0.89808  0.00370 -1.01294  0.009000  0.003339  0.002762     2.696
   1.97131  0.91366  0.00404 -1.01700  0.008485  0.003300  0.003405     2.571
   1.98653  0.92887  0.00415 -1.02344  0.007900  0.003235  0.004228     2.442
   2.00124  0.94358  0.00401 -1.03301  0.007253  0.003139  0.005289     2.311
   2.01526  0.95760  0.00361 -1.04666  0.006553  0.003006  0.006679     2.180
   2.02837  0.97069  0.00296 -1.06600  0.005800  0.002831  0.008577     2.049
   2.04040  0.98268  0.00205 -1.09332  0.005002  0.002608  0.011278     1.918
   2.05125  0.99348  0.00090 -1.13440  0.004129  0.002318  0.015603     1.781
   2.05783  1.00000  0.00000 -1.11747  0.004737  0.002493  0.012327     1.901
   2.05783  1.00010 -0.00002  1.11747  0.183357  0.013362  0.000000    13.722
   2.06446  1.00660 -0.00132  1.11458  0.178886  0.013901  0.000000    12.869
   2.07221  1.01425 -0.00257  1.11137  0.176950  0.014496  0.000000    12.206
   2.08127  1.02321 -0.00386  1.10759  0.175038  0.015197  0.000000    11.518
   2.09186  1.03371 -0.00521  1.10313  0.173009  0.016025  0.000000    10.796
   2.10423  1.04601 -0.00662  1.09785  0.170710  0.017009  0.000000    10.037
   2.11869  1.06039 -0.00809  1.09159  0.168019  0.018180  0.000000     9.242
   2.13560  1.07723 -0.00961  1.08412  0.164809  0.019582  0.000000     8.416
   2.15535  1.09692 -0.01118  1.07520  0.160935  0.021268  0.000000     7.567
   2.17845  1.11996 -0.01278  1.06447  0.156231  0.023309  0.000000     6.703
   2.20544  1.14690 -0.01437  1.05146  0.150506  0.025803  0.000000     5.833
   2.23698  1.17841 -0.01591  1.03545  0.143559  0.028905  0.000000     4.967
   2.27386  1.21526 -0.01736  1.01510  0.135232  0.032910  0.000000     4.109
   2.31695  1.25833 -0.01864  0.98822  0.125507  0.038338  0.000000     3.274
   2.36732  1.30869 -0.01967  0.96586  0.113847  0.042947  0.000000     2.651
   2.42619  1.36756 -0.02033  0.95032  0.101002  0.046139  0.000000     2.189
   2.49501  1.43637 -0.02049  0.94276  0.088100  0.047643  0.000000     1.849
   2.57543  1.51680 -0.01998  0.94279  0.076325  0.047639  0.000000     1.602
   2.66944  1.61079 -0.01859  0.94835  0.066512  0.046664  0.000000     1.425
   2.77931  1.72063 -0.01607  0.95669  0.058895  0.045312  0.000000     1.300
   2.90773  1.84899 -0.01211  0.96562  0.053215  0.043962  0.000000     1.210
   3.05782  1.99898 -0.00637  0.98384  0.047325  0.041429  0.000000     1.142
