#    s        x        y     Ue/Vinf    Dstar     Theta      Cf       H
   0.00000  1.00000  0.00000  0.92973  0.053698  0.014447  0.000005     3.717
   0.00667  0.99364  0.00201  0.93116  0.050807  0.014323  0.000027     3.547
   0.01801  0.98283  0.00544  0.93516  0.048101  0.013990  0.000045     3.438
   0.03089  0.97055  0.00931  0.94063  0.045305  0.013556  0.000065     3.342
   0.04491  0.95712  0.01335  0.94768  0.042647  0.013029  0.000083     3.273
   0.05974  0.94286  0.01740  0.95580  0.040264  0.012457  0.000097     3.232
   0.07527  0.92786  0.02141  0.96502  0.038193  0.011847  0.000105     3.224
   0.09142  0.91220  0.02541  0.97540  0.036382  0.011200  0.000106     3.248
   0.10802  0.89609  0.02942  0.98701  0.034786  0.010522  0.000097     3.306
   0.12488  0.87971  0.03341  0.99990  0.033389  0.009815  0.000078     3.402
   0.14188  0.86318  0.03738  1.01440  0.032176  0.009070  0.000046     3.548
   0.15896  0.84656  0.04130  1.03124  0.031117  0.008264  0.000000     3.766
   0.17607  0.82989  0.04517  1.05011  0.030204  0.007423 -0.000053     4.069
   0.19318  0.81321  0.04899  1.07081  0.029416  0.006568 -0.000106     4.479
   0.21029  0.79652  0.05273  1.09353  0.028723  0.005700 -0.000148     5.039
   0.22743  0.77978  0.05643  1.11882  0.028080  0.004810 -0.000178     5.838
   0.24453  0.76308  0.06007  1.14750  0.027415  0.003885 -0.000211     7.056
   0.26151  0.74647  0.06361  1.18168  0.026654  0.002886 -0.000273     9.236
   0.27839  0.72994  0.06704  1.22620  0.025629  0.001715 -0.000329    14.945
   0.29522  0.71344  0.07036  1.22496  0.024979  0.001747 -0.000451    14.295
   0.31203  0.69694  0.07357  1.22546  0.024055  0.001739 -0.000455    13.836
   0.32881  0.68046  0.07667  1.22591  0.022970  0.001731 -0.000458    13.268
   0.34552  0.66401  0.07965  1.22634  0.021774  0.001725 -0.000462    12.625
   0.36216  0.64761  0.08250  1.22678  0.020512  0.001718 -0.000466    11.936
   0.37877  0.63123  0.08521  1.22726  0.019215  0.001712 -0.000471    11.224
   0.39539  0.61480  0.08779  1.22782  0.017899  0.001705 -0.000476    10.500
   0.41202  0.59836  0.09025  1.22847  0.016562  0.001696 -0.000483     9.764
   0.42857  0.58198  0.09257  1.22925  0.015227  0.001687 -0.000492     9.028
   0.44503  0.56566  0.09473  1.23023  0.013930  0.001675 -0.000503     8.316
   0.46148  0.54933  0.09674  1.23148  0.012686  0.001661 -0.000518     7.638
   0.47798  0.53293  0.09860  1.23308  0.011484  0.001644 -0.000537     6.986
   0.49446  0.51655  0.10033  1.23509  0.010326  0.001624 -0.000562     6.359
   0.51082  0.50026  0.10190  1.23766  0.009237  0.001600 -0.000594     5.774
   0.52710  0.48404  0.10328  1.24093  0.008249  0.001572 -0.000612     5.249
   0.54339  0.46779  0.10449  1.24504  0.007363  0.001539 -0.000592     4.785
   0.55971  0.45151  0.10554  1.25007  0.006572  0.001501 -0.000481     4.377
   0.57600  0.43525  0.10643  1.25592  0.005846  0.001460 -0.000221     4.003
   0.59218  0.41907  0.10713  1.26264  0.005230  0.001416  0.000187     3.695
   0.60829  0.40298  0.10765  1.27030  0.004705  0.001366  0.000723     3.443
   0.62434  0.38693  0.10796  1.27855  0.004280  0.001315  0.001309     3.255
   0.64042  0.37085  0.10808  1.28704  0.003925  0.001263  0.001929     3.108
   0.65651  0.35476  0.10800  1.29547  0.003623  0.001211  0.002569     2.992
   0.67249  0.33878  0.10774  1.30385  0.003341  0.001159  0.003314     2.882
   0.68825  0.32303  0.10727  1.31158  0.003094  0.001110  0.004099     2.788
   0.70393  0.30737  0.10654  1.31757  0.002917  0.001066  0.004676     2.736
   0.71975  0.29158  0.10557  1.32233  0.002782  0.001026  0.005085     2.710
   0.73559  0.27578  0.10439  1.32750  0.002620  0.000983  0.005742     2.664
   0.75115  0.26028  0.10302  1.33243  0.002442  0.000940  0.006671     2.599
   0.76650  0.24502  0.10139  1.33481  0.002309  0.000902  0.007389     2.560
   0.78192  0.22972  0.09944  1.33428  0.002234  0.000871  0.007594     2.565
   0.79744  0.21436  0.09725  1.33448  0.002135  0.000836  0.008051     2.553
   0.81279  0.19920  0.09484  1.33490  0.002011  0.000799  0.008885     2.518
   0.82793  0.18429  0.09217  1.33253  0.001923  0.000766  0.009349     2.511
   0.84302  0.16950  0.08922  1.32932  0.001840  0.000733  0.009770     2.509
   0.85806  0.15481  0.08599  1.32556  0.001758  0.000700  0.010174     2.511
   0.87291  0.14036  0.08253  1.32184  0.001664  0.000664  0.010786     2.505
   0.88737  0.12638  0.07886  1.31793  0.001545  0.000625  0.012013     2.471
   0.90140  0.11290  0.07496  1.31013  0.001450  0.000591  0.012960     2.454
   0.91519  0.09977  0.07076  1.29898  0.001397  0.000561  0.012794     2.493
   0.92848  0.08721  0.06643  1.29165  0.001296  0.000522  0.013833     2.485
   0.94079  0.07568  0.06209  1.28311  0.001155  0.000480  0.016689     2.407
   0.95221  0.06515  0.05767  1.26339  0.001087  0.000451  0.017476     2.407
   0.96284  0.05550  0.05322  1.24297  0.001045  0.000425  0.016924     2.461
   0.97241  0.04692  0.04898  1.22924  0.000960  0.000390  0.018212     2.461
   0.98081  0.03952  0.04501  1.21441  0.000862  0.000355  0.020759     2.427
   0.98816  0.03319  0.04127  1.19364  0.000787  0.000326  0.022630     2.413
   0.99463  0.02777  0.03774  1.16938  0.000716  0.000299  0.024943     2.391
   1.00034  0.02313  0.03441  1.13954  0.000652  0.000276  0.027341     2.365
   1.00542  0.01915  0.03125  1.10397  0.000604  0.000256  0.028717     2.361
   1.00996  0.01574  0.02825  1.06532  0.000555  0.000237  0.030660     2.344
   1.01405  0.01281  0.02541  1.02169  0.000515  0.000220  0.031695     2.344
   1.01775  0.01030  0.02269  0.97288  0.000467  0.000203  0.034469     2.306
   1.02112  0.00816  0.02007  0.91282  0.000437  0.000190  0.034922     2.295
   1.02423  0.00634  0.01756  0.84786  0.000410  0.000179  0.034537     2.294
   1.02710  0.00481  0.01513  0.77745  0.000381  0.000167  0.034707     2.274
   1.02975  0.00353  0.01281  0.69745  0.000359  0.000159  0.033609     2.254
   1.03221  0.00250  0.01057  0.61222  0.000347  0.000153  0.030413     2.258
   1.03452  0.00166  0.00842  0.52743  0.000329  0.000145  0.027202     2.271
   1.03670  0.00100  0.00634  0.43607  0.000303  0.000134  0.024820     2.254
   1.03878  0.00049  0.00433  0.32648  0.000292  0.000133  0.020200     2.199
   1.04077  0.00014  0.00237  0.22080  0.000295  0.000129  0.012313     2.289
   1.04268 -0.00001  0.00047  0.10202  0.000231  0.000104  0.007476     2.230
   1.04452  0.00009 -0.00138 -0.06026  0.000231  0.000104  0.005075     2.230
   1.04638  0.00049 -0.00318 -0.20814  0.000248  0.000111  0.015144     2.240
   1.04830  0.00119 -0.00498 -0.35406  0.000248  0.000112  0.025894     2.223
   1.05035  0.00220 -0.00676 -0.48460  0.000275  0.000121  0.030272     2.276
   1.05254  0.00351 -0.00851 -0.59179  0.000302  0.000133  0.033843     2.268
   1.05487  0.00512 -0.01021 -0.68327  0.000333  0.000146  0.034748     2.288
   1.05738  0.00701 -0.01184 -0.75296  0.000378  0.000163  0.032558     2.324
   1.06008  0.00920 -0.01343 -0.79656  0.000447  0.000187  0.027373     2.388
   1.06301  0.01168 -0.01499 -0.83654  0.000481  0.000206  0.027971     2.339
   1.06622  0.01448 -0.01656 -0.86837  0.000544  0.000228  0.024505     2.386
   1.06978  0.01766 -0.01815 -0.89459  0.000600  0.000251  0.022802     2.390
   1.07377  0.02129 -0.01981 -0.91979  0.000651  0.000273  0.021739     2.384
   1.07825  0.02543 -0.02154 -0.94591  0.000696  0.000294  0.021164     2.372
   1.08332  0.03017 -0.02333 -0.97177  0.000747  0.000315  0.020267     2.372
   1.08907  0.03561 -0.02519 -0.99555  0.000807  0.000338  0.018975     2.384
   1.09564  0.04190 -0.02708 -1.01511  0.000885  0.000367  0.017159     2.412
   1.10320  0.04922 -0.02900 -1.03036  0.000976  0.000400  0.015344     2.439
   1.11196  0.05776 -0.03093 -1.03949  0.001099  0.000442  0.013095     2.487
   1.12207  0.06768 -0.03288 -1.04629  0.001215  0.000486  0.011731     2.501
   1.13350  0.07895 -0.03481 -1.05389  0.001315  0.000528  0.011070     2.488
   1.14613  0.09144 -0.03664 -1.05856  0.001449  0.000576  0.009810     2.514
   1.15994  0.10515 -0.03835 -1.06011  0.001602  0.000629  0.008581     2.546
   1.17469  0.11981 -0.03996 -1.06384  0.001699  0.000674  0.008360     2.520
   1.18993  0.13498 -0.04141 -1.06756  0.001804  0.000718  0.007953     2.513
   1.20552  0.15051 -0.04267 -1.07074  0.001913  0.000761  0.007514     2.515
   1.22143  0.16639 -0.04375 -1.07232  0.002040  0.000806  0.006922     2.533
   1.23764  0.18258 -0.04467 -1.07363  0.002154  0.000848  0.006520     2.539
   1.25400  0.19892 -0.04546 -1.07514  0.002252  0.000888  0.006261     2.536
   1.27036  0.21526 -0.04609 -1.07711  0.002335  0.000924  0.006114     2.527
   1.28677  0.23166 -0.04656 -1.07804  0.002442  0.000963  0.005788     2.537
   1.30335  0.24824 -0.04689 -1.07813  0.002559  0.001002  0.005427     2.553
   1.32002  0.26491 -0.04711 -1.07871  0.002649  0.001038  0.005252     2.552
   1.33663  0.28153 -0.04721 -1.07927  0.002736  0.001072  0.005093     2.551
   1.35321  0.29810 -0.04717 -1.07935  0.002833  0.001108  0.004879     2.558
   1.36986  0.31475 -0.04699 -1.07851  0.002953  0.001145  0.004574     2.578
   1.38656  0.33145 -0.04670 -1.07793  0.003051  0.001180  0.004393     2.585
   1.40323  0.34811 -0.04629 -1.07683  0.003163  0.001217  0.004165     2.599
   1.41985  0.36473 -0.04576 -1.07528  0.003282  0.001254  0.003923     2.617
   1.43647  0.38133 -0.04510 -1.07322  0.003415  0.001293  0.003661     2.642
   1.45309  0.39793 -0.04431 -1.07046  0.003568  0.001334  0.003356     2.676
   1.46972  0.41453 -0.04339 -1.06704  0.003744  0.001377  0.003025     2.719
   1.48633  0.43111 -0.04234 -1.06282  0.003956  0.001424  0.002646     2.777
   1.50291  0.44765 -0.04116 -1.05811  0.004192  0.001473  0.002270     2.845
   1.51945  0.46414 -0.03985 -1.05259  0.004495  0.001527  0.001827     2.944
   1.53596  0.48059 -0.03840 -1.04659  0.004868  0.001583  0.001362     3.074
   1.55247  0.49701 -0.03680 -1.04030  0.005352  0.001642  0.000864     3.260
   1.56903  0.51348 -0.03504 -1.03430  0.005954  0.001699  0.000397     3.505
   1.58574  0.53008 -0.03313 -1.02902  0.006691  0.001750  0.000010     3.823
   1.60264  0.54687 -0.03109 -1.02457  0.007540  0.001795 -0.000247     4.200
   1.61973  0.56382 -0.02896 -1.02070  0.008473  0.001837 -0.000376     4.613
   1.63695  0.58089 -0.02675 -1.01746  0.009470  0.001874 -0.000416     5.054
   1.65426  0.59806 -0.02449 -1.01480  0.010517  0.001906 -0.000414     5.518
   1.67164  0.61529 -0.02221 -1.01260  0.011579  0.001935 -0.000398     5.984
   1.68905  0.63255 -0.01994 -1.01077  0.012640  0.001961 -0.000381     6.447
   1.70644  0.64979 -0.01769 -1.00920  0.013679  0.001984 -0.000367     6.895
   1.72377  0.66698 -0.01547 -1.00784  0.014686  0.002005 -0.000356     7.323
   1.74101  0.68409 -0.01330 -1.00663  0.015648  0.002026 -0.000348     7.726
   1.75815  0.70109 -0.01119 -1.00553  0.016547  0.002045 -0.000340     8.093
   1.77520  0.71802 -0.00917 -1.00450  0.017361  0.002063 -0.000334     8.414
   1.79217  0.73488 -0.00723 -1.00351  0.018090  0.002082 -0.000329     8.688
   1.80907  0.75168 -0.00538 -1.00254  0.018716  0.002101 -0.000324     8.908
   1.82588  0.76841 -0.00365 -1.00159  0.019238  0.002120 -0.000320     9.073
   1.84259  0.78504 -0.00203 -1.00062  0.019631  0.002141 -0.000316     9.170
   1.85920  0.80157 -0.00054 -0.99963  0.019893  0.002162 -0.000312     9.201
   1.87568  0.81800  0.00080 -0.99860  0.020002  0.002185 -0.000309     9.156
   1.89204  0.83432  0.00198 -0.99751  0.019945  0.002209 -0.000306     9.030
   1.90829  0.85054  0.00299 -0.99634  0.019706  0.002235 -0.000303     8.818
   1.92442  0.86665  0.00381 -0.99507  0.019270  0.002263 -0.000301     8.516
   1.94041  0.88262  0.00443 -0.99369  0.018629  0.002293 -0.000300     8.124
   1.95619  0.89840  0.00486 -0.99216  0.017764  0.002326 -0.000299     7.638
   1.97170  0.91391  0.00506 -0.99048  0.016645  0.002361 -0.000301     7.051
   1.98685  0.92905  0.00502 -0.98391  0.015273  0.002497 -0.000209     6.117
   2.00150  0.94370  0.00473 -0.96020  0.013736  0.002986 -0.000151     4.600
   2.01546  0.95766  0.00418 -0.93814  0.012005  0.003436  0.000185     3.494
   2.02853  0.97070  0.00337 -0.92616  0.010196  0.003675  0.000911     2.775
   2.04056  0.98268  0.00230 -0.92523  0.008430  0.003701  0.001903     2.278
   2.05143  0.99347  0.00100 -0.93750  0.006763  0.003521  0.003235     1.921
   2.05803  1.00000  0.00000 -0.92973  0.006914  0.003650  0.003189     1.894
   2.05803  1.00010 -0.00002  0.92973  0.060609  0.018095  0.000000     3.349
   2.06467  1.00659 -0.00142  0.92585  0.055804  0.018492  0.000000     3.018
   2.07243  1.01422 -0.00279  0.92231  0.053203  0.018844  0.000000     2.823
   2.08150  1.02318 -0.00423  0.91900  0.050586  0.019167  0.000000     2.639
   2.09210  1.03366 -0.00577  0.91607  0.047876  0.019447  0.000000     2.462
   2.10448  1.04594 -0.00742  0.91383  0.045014  0.019656  0.000000     2.290
   2.11896  1.06030 -0.00919  0.91260  0.042000  0.019767  0.000000     2.125
   2.13587  1.07711 -0.01109  0.91275  0.038875  0.019754  0.000000     1.968
   2.15564  1.09678 -0.01313  0.91457  0.035714  0.019601  0.000000     1.822
   2.17875  1.11978 -0.01531  0.91824  0.032617  0.019309  0.000000     1.689
   2.20575  1.14668 -0.01763  0.92367  0.029690  0.018900  0.000000     1.571
   2.23731  1.17815 -0.02009  0.93053  0.027028  0.018414  0.000000     1.468
   2.27420  1.21494 -0.02267  0.93827  0.024693  0.017898  0.000000     1.380
   2.31730  1.25796 -0.02536  0.94630  0.022706  0.017396  0.000000     1.305
   2.36768  1.30827 -0.02815  0.95408  0.021053  0.016935  0.000000     1.243
   2.42656  1.36708 -0.03098  0.96128  0.019700  0.016531  0.000000     1.192
   2.49537  1.43583 -0.03384  0.96773  0.018605  0.016184  0.000000     1.150
   2.57580  1.51620 -0.03665  0.97337  0.017729  0.015891  0.000000     1.116
   2.66978  1.61015 -0.03934  0.97823  0.017034  0.015647  0.000000     1.089
   2.77963  1.71997 -0.04184  0.98236  0.016488  0.015445  0.000000     1.068
   2.90801  1.84833 -0.04404  0.98580  0.016065  0.015280  0.000000     1.051
   3.05804  1.99835 -0.04581  0.98949  0.015697  0.015106  0.000000     1.039
