#    s        x        y     Ue/Vinf    Dstar     Theta      Cf       H
   0.00000  1.00000  0.00000  0.93290  0.054334  0.013892 -0.000012     3.911
   0.00667  0.99364  0.00201  0.93457  0.051461  0.013748  0.000004     3.743
   0.01801  0.98283  0.00544  0.93876  0.048807  0.013403  0.000017     3.642
   0.03089  0.97055  0.00931  0.94413  0.046081  0.012982  0.000032     3.550
   0.04491  0.95712  0.01335  0.95085  0.043503  0.012484  0.000045     3.485
   0.05974  0.94286  0.01740  0.95894  0.041187  0.011918  0.000053     3.456
   0.07527  0.92786  0.02141  0.96843  0.039176  0.011293  0.000053     3.469
   0.09142  0.91220  0.02541  0.97939  0.037419  0.010615  0.000045     3.525
   0.10802  0.89609  0.02942  0.99195  0.035866  0.009887  0.000027     3.628
   0.12488  0.87971  0.03341  1.00618  0.034496  0.009115 -0.000001     3.784
   0.14188  0.86318  0.03738  1.02210  0.033294  0.008310 -0.000037     4.007
   0.15896  0.84656  0.04130  1.03969  0.032240  0.007481 -0.000077     4.309
   0.17607  0.82989  0.04517  1.05904  0.031313  0.006636 -0.000116     4.719
   0.19318  0.81321  0.04899  1.08038  0.030480  0.005772 -0.000146     5.281
   0.21029  0.79652  0.05273  1.10423  0.029708  0.004881 -0.000171     6.086
   0.22743  0.77978  0.05643  1.13148  0.028937  0.003949 -0.000202     7.328
   0.24453  0.76308  0.06007  1.16422  0.028053  0.002933 -0.000264     9.565
   0.26151  0.74647  0.06361  1.20721  0.026893  0.001732 -0.000319    15.527
   0.27839  0.72994  0.06704  1.20634  0.026145  0.001757 -0.000441    14.884
   0.29522  0.71344  0.07036  1.20677  0.025138  0.001749 -0.000444    14.374
   0.31203  0.69694  0.07357  1.20716  0.023979  0.001742 -0.000447    13.762
   0.32881  0.68046  0.07667  1.20752  0.022714  0.001737 -0.000450    13.077
   0.34552  0.66401  0.07965  1.20789  0.021376  0.001732 -0.000454    12.344
   0.36216  0.64761  0.08250  1.20830  0.020002  0.001726 -0.000458    11.587
   0.37877  0.63123  0.08521  1.20877  0.018618  0.001720 -0.000463    10.825
   0.39539  0.61480  0.08779  1.20934  0.017236  0.001713 -0.000470    10.064
   0.41202  0.59836  0.09025  1.21003  0.015851  0.001704 -0.000478     9.303
   0.42857  0.58198  0.09257  1.21090  0.014489  0.001693 -0.000488     8.556
   0.44503  0.56566  0.09473  1.21200  0.013176  0.001680 -0.000501     7.841
   0.46148  0.54933  0.09674  1.21344  0.011931  0.001664 -0.000518     7.168
   0.47798  0.53293  0.09860  1.21529  0.010748  0.001645 -0.000541     6.533
   0.49446  0.51655  0.10033  1.21765  0.009615  0.001622 -0.000571     5.928
   0.51082  0.50026  0.10190  1.22065  0.008564  0.001595 -0.000595     5.369
   0.52710  0.48404  0.10328  1.22447  0.007627  0.001563 -0.000586     4.879
   0.54339  0.46779  0.10449  1.22919  0.006802  0.001526 -0.000497     4.456
   0.55971  0.45151  0.10554  1.23476  0.006067  0.001486 -0.000283     4.083
   0.57600  0.43525  0.10643  1.24117  0.005413  0.001442  0.000092     3.755
   0.59218  0.41907  0.10713  1.24852  0.004859  0.001393  0.000597     3.489
   0.60829  0.40298  0.10765  1.25660  0.004396  0.001341  0.001193     3.279
   0.62434  0.38693  0.10796  1.26488  0.004026  0.001288  0.001796     3.125
   0.64042  0.37085  0.10808  1.27312  0.003714  0.001236  0.002415     3.005
   0.65651  0.35476  0.10800  1.28099  0.003451  0.001186  0.003023     2.911
   0.67249  0.33878  0.10774  1.28879  0.003195  0.001135  0.003764     2.815
   0.68825  0.32303  0.10727  1.29563  0.002977  0.001087  0.004499     2.738
   0.70393  0.30737  0.10654  1.30087  0.002810  0.001045  0.005082     2.690
   0.71975  0.29158  0.10557  1.30442  0.002696  0.001007  0.005398     2.677
   0.73559  0.27578  0.10439  1.30885  0.002541  0.000965  0.006059     2.633
   0.75115  0.26028  0.10302  1.31303  0.002367  0.000922  0.007025     2.568
   0.76650  0.24502  0.10139  1.31406  0.002248  0.000886  0.007658     2.538
   0.78192  0.22972  0.09944  1.31261  0.002175  0.000855  0.007869     2.542
   0.79744  0.21436  0.09725  1.31189  0.002075  0.000821  0.008380     2.527
   0.81279  0.19920  0.09484  1.31076  0.001962  0.000785  0.009126     2.500
   0.82793  0.18429  0.09217  1.30730  0.001874  0.000753  0.009628     2.490
   0.84302  0.16950  0.08922  1.30264  0.001793  0.000721  0.010041     2.488
   0.85806  0.15481  0.08599  1.29731  0.001715  0.000688  0.010411     2.492
   0.87291  0.14036  0.08253  1.29197  0.001626  0.000653  0.010969     2.489
   0.88737  0.12638  0.07886  1.28671  0.001503  0.000614  0.012360     2.447
   0.90140  0.11290  0.07496  1.27616  0.001419  0.000582  0.013080     2.440
   0.91519  0.09977  0.07076  1.26333  0.001365  0.000551  0.012977     2.475
   0.92848  0.08721  0.06643  1.25382  0.001264  0.000513  0.014026     2.466
   0.94079  0.07568  0.06209  1.24248  0.001131  0.000472  0.016690     2.396
   0.95221  0.06515  0.05767  1.22037  0.001058  0.000443  0.017702     2.387
   0.96284  0.05550  0.05322  1.19627  0.001020  0.000418  0.017026     2.441
   0.97241  0.04692  0.04898  1.17913  0.000934  0.000383  0.018437     2.436
   0.98081  0.03952  0.04501  1.15996  0.000846  0.000350  0.020448     2.415
   0.98816  0.03319  0.04127  1.13618  0.000767  0.000321  0.022612     2.391
   0.99463  0.02777  0.03774  1.10714  0.000701  0.000295  0.024444     2.376
   1.00034  0.02313  0.03441  1.07378  0.000642  0.000272  0.026291     2.360
   1.00542  0.01915  0.03125  1.03481  0.000586  0.000251  0.028573     2.331
   1.00996  0.01574  0.02825  0.98984  0.000550  0.000235  0.028683     2.345
   1.01405  0.01281  0.02541  0.94383  0.000501  0.000216  0.030750     2.320
   1.01775  0.01030  0.02269  0.88941  0.000464  0.000201  0.031615     2.310
   1.02112  0.00816  0.02007  0.82665  0.000425  0.000187  0.033114     2.274
   1.02423  0.00634  0.01756  0.75487  0.000406  0.000178  0.031307     2.286
   1.02710  0.00481  0.01513  0.68232  0.000378  0.000166  0.030462     2.282
   1.02975  0.00353  0.01281  0.59958  0.000350  0.000156  0.030024     2.241
   1.03221  0.00250  0.01057  0.50716  0.000343  0.000153  0.025835     2.244
   1.03452  0.00166  0.00842  0.42285  0.000325  0.000140  0.021267     2.313
   1.03670  0.00100  0.00634  0.31858  0.000283  0.000131  0.020979     2.167
   1.03878  0.00049  0.00433  0.20600  0.000321  0.000140  0.010575     2.293
   1.04077  0.00014  0.00237  0.10198  0.000252  0.000113  0.006963     2.230
   1.04268 -0.00001  0.00047 -0.03836  0.000252  0.000113  0.002973     2.230
   1.04452  0.00009 -0.00138 -0.19228  0.000229  0.000103  0.015334     2.221
   1.04638  0.00049 -0.00318 -0.35002  0.000237  0.000105  0.026180     2.246
   1.04830  0.00119 -0.00498 -0.48781  0.000257  0.000114  0.033097     2.257
   1.05035  0.00220 -0.00676 -0.61160  0.000276  0.000122  0.038708     2.257
   1.05254  0.00351 -0.00851 -0.71356  0.000308  0.000134  0.038893     2.295
   1.05487  0.00512 -0.01021 -0.79511  0.000341  0.000148  0.038895     2.302
   1.05738  0.00701 -0.01184 -0.85312  0.000395  0.000167  0.034187     2.357
   1.06008  0.00920 -0.01343 -0.89040  0.000456  0.000191  0.029694     2.395
   1.06301  0.01168 -0.01499 -0.92200  0.000503  0.000211  0.028261     2.381
   1.06622  0.01448 -0.01656 -0.95020  0.000554  0.000232  0.026304     2.388
   1.06978  0.01766 -0.01815 -0.96974  0.000626  0.000257  0.022677     2.433
   1.07377  0.02129 -0.01981 -0.99079  0.000669  0.000279  0.022416     2.400
   1.07825  0.02543 -0.02154 -1.01010  0.000729  0.000302  0.020693     2.413
   1.08332  0.03017 -0.02333 -1.03189  0.000771  0.000323  0.020505     2.388
   1.08907  0.03561 -0.02519 -1.05084  0.000839  0.000348  0.018761     2.410
   1.09564  0.04190 -0.02708 -1.06755  0.000911  0.000376  0.017327     2.424
   1.10320  0.04922 -0.02900 -1.07909  0.001011  0.000410  0.015142     2.464
   1.11196  0.05776 -0.03093 -1.08511  0.001134  0.000452  0.012922     2.510
   1.12207  0.06768 -0.03288 -1.08808  0.001263  0.000498  0.011295     2.537
   1.13350  0.07895 -0.03481 -1.09189  0.001369  0.000542  0.010586     2.525
   1.14613  0.09144 -0.03664 -1.09387  0.001502  0.000590  0.009485     2.543
   1.15994  0.10515 -0.03835 -1.09291  0.001661  0.000644  0.008231     2.579
   1.17469  0.11981 -0.03996 -1.09418  0.001764  0.000691  0.007982     2.554
   1.18993  0.13498 -0.04141 -1.09603  0.001867  0.000735  0.007654     2.541
   1.20552  0.15051 -0.04267 -1.09699  0.001988  0.000780  0.007138     2.549
   1.22143  0.16639 -0.04375 -1.09741  0.002107  0.000824  0.006676     2.557
   1.23764  0.18258 -0.04467 -1.09689  0.002236  0.000869  0.006177     2.573
   1.25400  0.19892 -0.04546 -1.09769  0.002322  0.000908  0.006055     2.558
   1.27036  0.21526 -0.04609 -1.09816  0.002420  0.000946  0.005819     2.557
   1.28677  0.23166 -0.04656 -1.09784  0.002533  0.000986  0.005484     2.569
   1.30335  0.24824 -0.04689 -1.09713  0.002647  0.001026  0.005173     2.581
   1.32002  0.26491 -0.04711 -1.09672  0.002744  0.001063  0.004985     2.582
   1.33663  0.28153 -0.04721 -1.09642  0.002834  0.001098  0.004831     2.581
   1.35321  0.29810 -0.04717 -1.09544  0.002943  0.001135  0.004584     2.593
   1.36986  0.31475 -0.04699 -1.09411  0.003057  0.001172  0.004336     2.607
   1.38656  0.33145 -0.04670 -1.09241  0.003176  0.001210  0.004088     2.624
   1.40323  0.34811 -0.04629 -1.09068  0.003289  0.001247  0.003884     2.637
   1.41985  0.36473 -0.04576 -1.08838  0.003419  0.001286  0.003632     2.659
   1.43647  0.38133 -0.04510 -1.08551  0.003567  0.001327  0.003347     2.689
   1.45309  0.39793 -0.04431 -1.08193  0.003742  0.001370  0.003018     2.731
   1.46972  0.41453 -0.04339 -1.07778  0.003941  0.001416  0.002671     2.783
   1.48633  0.43111 -0.04234 -1.07288  0.004182  0.001465  0.002276     2.854
   1.50291  0.44765 -0.04116 -1.06747  0.004466  0.001517  0.001864     2.943
   1.51945  0.46414 -0.03985 -1.06156  0.004815  0.001572  0.001420     3.063
   1.53596  0.48059 -0.03840 -1.05539  0.005253  0.001629  0.000956     3.225
   1.55247  0.49701 -0.03680 -1.04932  0.005818  0.001685  0.000486     3.453
   1.56903  0.51348 -0.03504 -1.04389  0.006511  0.001737  0.000082     3.749
   1.58574  0.53008 -0.03313 -1.03930  0.007345  0.001782 -0.000212     4.122
   1.60264  0.54687 -0.03109 -1.03535  0.008293  0.001823 -0.000370     4.549
   1.61973  0.56382 -0.02896 -1.03204  0.009325  0.001860 -0.000423     5.014
   1.63695  0.58089 -0.02675 -1.02935  0.010418  0.001892 -0.000423     5.506
   1.65426  0.59806 -0.02449 -1.02718  0.011556  0.001920 -0.000406     6.019
   1.67164  0.61529 -0.02221 -1.02540  0.012701  0.001944 -0.000388     6.533
   1.68905  0.63255 -0.01994 -1.02391  0.013834  0.001966 -0.000374     7.036
   1.70644  0.64979 -0.01769 -1.02263  0.014939  0.001986 -0.000362     7.522
   1.72377  0.66698 -0.01547 -1.02152  0.016002  0.002004 -0.000354     7.984
   1.74101  0.68409 -0.01330 -1.02051  0.017011  0.002022 -0.000346     8.415
   1.75815  0.70109 -0.01119 -1.01959  0.017942  0.002038 -0.000340     8.802
   1.77520  0.71802 -0.00917 -1.01870  0.018780  0.002055 -0.000335     9.139
   1.79217  0.73488 -0.00723 -1.01785  0.019518  0.002072 -0.000330     9.421
   1.80907  0.75168 -0.00538 -1.01699  0.020144  0.002089 -0.000326     9.641
   1.82588  0.76841 -0.00365 -1.01613  0.020649  0.002107 -0.000322     9.798
   1.84259  0.78504 -0.00203 -1.01525  0.021013  0.002127 -0.000319     9.880
   1.85920  0.80157 -0.00054 -1.01432  0.021228  0.002147 -0.000315     9.886
   1.87568  0.81800  0.00080 -1.01334  0.021271  0.002170 -0.000312     9.804
   1.89204  0.83432  0.00198 -1.01229  0.021127  0.002194 -0.000309     9.631
   1.90829  0.85054  0.00299 -1.01114  0.020774  0.002220 -0.000307     9.357
   1.92442  0.86665  0.00381 -1.00987  0.020187  0.002249 -0.000304     8.976
   1.94041  0.88262  0.00443 -1.00845  0.019346  0.002281 -0.000303     8.482
   1.95619  0.89840  0.00486 -1.00683  0.018197  0.002316 -0.000303     7.857
   1.97170  0.91391  0.00506 -0.98277  0.016912  0.002867 -0.000207     5.899
   1.98685  0.92905  0.00502 -0.95508  0.015359  0.003514 -0.000128     4.371
   2.00150  0.94370  0.00473 -0.93195  0.013616  0.004057  0.000243     3.356
   2.01546  0.95766  0.00418 -0.91879  0.011807  0.004362  0.000846     2.707
   2.02853  0.97070  0.00337 -0.91542  0.010045  0.004444  0.001594     2.260
   2.04056  0.98268  0.00230 -0.92243  0.008382  0.004322  0.002511     1.940
   2.05143  0.99347  0.00100 -0.94159  0.006818  0.004014  0.003723     1.699
   2.05803  1.00000  0.00000 -0.93290  0.007035  0.004167  0.003590     1.688
   2.05803  1.00010 -0.00002  0.93290  0.061368  0.018059  0.000000     3.398
   2.06467  1.00659 -0.00142  0.92838  0.056591  0.018523  0.000000     3.055
   2.07243  1.01422 -0.00280  0.92449  0.054004  0.018912  0.000000     2.855
   2.08150  1.02317 -0.00425  0.92081  0.051388  0.019275  0.000000     2.666
   2.09210  1.03366 -0.00580  0.91751  0.048668  0.019594  0.000000     2.484
   2.10448  1.04593 -0.00747  0.91488  0.045779  0.019843  0.000000     2.307
   2.11896  1.06029 -0.00927  0.91328  0.042724  0.019989  0.000000     2.137
   2.13587  1.07710 -0.01121  0.91309  0.039544  0.020006  0.000000     1.977
   2.15564  1.09676 -0.01330  0.91463  0.036315  0.019874  0.000000     1.827
   2.17875  1.11975 -0.01555  0.91810  0.033142  0.019593  0.000000     1.692
   2.20575  1.14665 -0.01795  0.92343  0.030140  0.019185  0.000000     1.571
   2.23731  1.17810 -0.02051  0.93029  0.027408  0.018693  0.000000     1.466
   2.27420  1.21489 -0.02323  0.93810  0.025013  0.018166  0.000000     1.377
   2.31730  1.25790 -0.02610  0.94622  0.022979  0.017650  0.000000     1.302
   2.36768  1.30819 -0.02910  0.95411  0.021292  0.017177  0.000000     1.240
   2.42656  1.36699 -0.03222  0.96140  0.019916  0.016762  0.000000     1.188
   2.49537  1.43572 -0.03542  0.96793  0.018806  0.016407  0.000000     1.146
   2.57580  1.51608 -0.03867  0.97362  0.017921  0.016108  0.000000     1.113
   2.66978  1.61001 -0.04191  0.97851  0.017222  0.015859  0.000000     1.086
   2.77963  1.71981 -0.04508  0.98265  0.016676  0.015654  0.000000     1.065
   2.90801  1.84815 -0.04811  0.98609  0.016254  0.015487  0.000000     1.050
   3.05804  1.99816 -0.05089  0.98976  0.015888  0.015313  0.000000     1.038
