#    s        x        y     Ue/Vinf    Dstar     Theta      Cf       H
   0.00000  1.00000  0.00000  0.94601  0.057567  0.012622 -0.000049     4.561
   0.00667  0.99364  0.00201  0.94813  0.054650  0.012441 -0.000044     4.393
   0.01801  0.98283  0.00544  0.95276  0.052052  0.012062 -0.000041     4.315
   0.03089  0.97055  0.00931  0.95852  0.049385  0.011614 -0.000039     4.252
   0.04491  0.95712  0.01335  0.96548  0.046859  0.011102 -0.000039     4.221
   0.05974  0.94286  0.01740  0.97368  0.044577  0.010533 -0.000043     4.232
   0.07527  0.92786  0.02141  0.98322  0.042570  0.009909 -0.000051     4.296
   0.09142  0.91220  0.02541  0.99419  0.040784  0.009235 -0.000063     4.416
   0.10802  0.89609  0.02942  1.00657  0.039167  0.008521 -0.000079     4.596
   0.12488  0.87971  0.03341  1.02039  0.037698  0.007776 -0.000097     4.848
   0.14188  0.86318  0.03738  1.03571  0.036362  0.007005 -0.000114     5.191
   0.15896  0.84656  0.04130  1.05270  0.035134  0.006208 -0.000131     5.659
   0.17607  0.82989  0.04517  1.07163  0.033989  0.005386 -0.000148     6.311
   0.19318  0.81321  0.04899  1.09293  0.032893  0.004532 -0.000171     7.258
   0.21029  0.79652  0.05273  1.11755  0.031791  0.003627 -0.000210     8.764
   0.22743  0.77978  0.05643  1.14736  0.030581  0.002633 -0.000285    11.614
   0.24453  0.76308  0.06007  1.17674  0.029247  0.001763 -0.000426    16.594
   0.26151  0.74647  0.06361  1.17709  0.028190  0.001755 -0.000428    16.058
   0.27839  0.72994  0.06704  1.17738  0.026945  0.001751 -0.000431    15.392
   0.29522  0.71344  0.07036  1.17763  0.025574  0.001747 -0.000433    14.642
   0.31203  0.69694  0.07357  1.17788  0.024124  0.001743 -0.000436    13.837
   0.32881  0.68046  0.07667  1.17814  0.022624  0.001740 -0.000439    13.001
   0.34552  0.66401  0.07965  1.17842  0.021090  0.001737 -0.000442    12.144
   0.36216  0.64761  0.08250  1.17877  0.019557  0.001732 -0.000447    11.289
   0.37877  0.63123  0.08521  1.17921  0.018043  0.001727 -0.000452    10.449
   0.39539  0.61480  0.08779  1.17979  0.016560  0.001719 -0.000460     9.632
   0.41202  0.59836  0.09025  1.18053  0.015099  0.001710 -0.000469     8.830
   0.42857  0.58198  0.09257  1.18149  0.013681  0.001698 -0.000481     8.056
   0.44503  0.56566  0.09473  1.18276  0.012337  0.001684 -0.000498     7.328
   0.46148  0.54933  0.09674  1.18445  0.011084  0.001665 -0.000519     6.656
   0.47798  0.53293  0.09860  1.18665  0.009908  0.001643 -0.000547     6.032
   0.49446  0.51655  0.10033  1.18949  0.008804  0.001616 -0.000573     5.449
   0.51082  0.50026  0.10190  1.19312  0.007798  0.001584 -0.000566     4.923
   0.52710  0.48404  0.10328  1.19765  0.006918  0.001547 -0.000477     4.471
   0.54339  0.46779  0.10449  1.20305  0.006158  0.001506 -0.000263     4.088
   0.55971  0.45151  0.10554  1.20928  0.005501  0.001462  0.000092     3.764
   0.57600  0.43525  0.10643  1.21650  0.004922  0.001412  0.000598     3.487
   0.59218  0.41907  0.10713  1.22444  0.004445  0.001358  0.001186     3.272
   0.60829  0.40298  0.10765  1.23263  0.004057  0.001304  0.001805     3.110
   0.62434  0.38693  0.10796  1.24072  0.003733  0.001251  0.002439     2.983
   0.64042  0.37085  0.10808  1.24817  0.003477  0.001201  0.003004     2.896
   0.65651  0.35476  0.10800  1.25527  0.003246  0.001151  0.003605     2.819
   0.67249  0.33878  0.10774  1.26193  0.003027  0.001103  0.004286     2.744
   0.68825  0.32303  0.10727  1.26781  0.002825  0.001057  0.005034     2.673
   0.70393  0.30737  0.10654  1.27162  0.002680  0.001016  0.005558     2.637
   0.71975  0.29158  0.10557  1.27389  0.002576  0.000980  0.005856     2.628
   0.73559  0.27578  0.10439  1.27683  0.002438  0.000940  0.006452     2.593
   0.75115  0.26028  0.10302  1.27970  0.002274  0.000898  0.007415     2.533
   0.76650  0.24502  0.10139  1.27931  0.002159  0.000863  0.008065     2.503
   0.78192  0.22972  0.09944  1.27591  0.002099  0.000834  0.008167     2.515
   0.79744  0.21436  0.09725  1.27370  0.002004  0.000801  0.008654     2.503
   0.81279  0.19920  0.09484  1.27128  0.001887  0.000764  0.009513     2.468
   0.82793  0.18429  0.09217  1.26555  0.001806  0.000734  0.009954     2.462
   0.84302  0.16950  0.08922  1.25878  0.001728  0.000703  0.010377     2.460
   0.85806  0.15481  0.08599  1.25084  0.001661  0.000672  0.010592     2.472
   0.87291  0.14036  0.08253  1.24369  0.001568  0.000637  0.011256     2.463
   0.88737  0.12638  0.07886  1.23562  0.001448  0.000598  0.012658     2.420
   0.90140  0.11290  0.07496  1.22164  0.001370  0.000567  0.013289     2.416
   0.91519  0.09977  0.07076  1.20556  0.001318  0.000538  0.013163     2.450
   0.92848  0.08721  0.06643  1.19253  0.001221  0.000500  0.014145     2.444
   0.94079  0.07568  0.06209  1.17709  0.001088  0.000459  0.016877     2.370
   0.95221  0.06515  0.05767  1.14956  0.001026  0.000433  0.017456     2.371
   0.96284  0.05550  0.05322  1.12148  0.000977  0.000407  0.017334     2.402
   0.97241  0.04692  0.04898  1.09787  0.000912  0.000375  0.017702     2.429
   0.98081  0.03952  0.04501  1.07526  0.000805  0.000340  0.020815     2.370
   0.98816  0.03319  0.04127  1.04274  0.000747  0.000314  0.021568     2.379
   0.99463  0.02777  0.03774  1.00871  0.000673  0.000288  0.024016     2.341
   1.00034  0.02313  0.03441  0.96717  0.000627  0.000267  0.024580     2.347
   1.00542  0.01915  0.03125  0.92389  0.000572  0.000246  0.026215     2.328
   1.00996  0.01574  0.02825  0.87296  0.000524  0.000228  0.027740     2.300
   1.01405  0.01281  0.02541  0.81664  0.000495  0.000213  0.026916     2.322
   1.01775  0.01030  0.02269  0.75739  0.000446  0.000196  0.028917     2.277
   1.02112  0.00816  0.02007  0.68542  0.000422  0.000185  0.027727     2.275
   1.02423  0.00634  0.01756  0.61077  0.000396  0.000174  0.026258     2.277
   1.02710  0.00481  0.01513  0.53045  0.000366  0.000162  0.024966     2.263
   1.02975  0.00353  0.01281  0.43925  0.000344  0.000154  0.022540     2.237
   1.03221  0.00250  0.01057  0.34157  0.000338  0.000151  0.017976     2.230
   1.03452  0.00166  0.00842  0.24880  0.000321  0.000141  0.013177     2.278
   1.03670  0.00100  0.00634  0.14167  0.000275  0.000124  0.009159     2.227
   1.03878  0.00049  0.00433  0.01658  0.000286  0.000128  0.001031     2.230
   1.04077  0.00014  0.00237 -0.09738  0.000286  0.000128  0.006053     2.230
   1.04268 -0.00001  0.00047 -0.24484  0.000230  0.000105  0.019564     2.194
   1.04452  0.00009 -0.00138 -0.41512  0.000227  0.000101  0.032027     2.249
   1.04638  0.00049 -0.00318 -0.57133  0.000235  0.000105  0.042854     2.239
   1.04830  0.00119 -0.00498 -0.70071  0.000263  0.000115  0.044923     2.289
   1.05035  0.00220 -0.00676 -0.80992  0.000284  0.000125  0.048804     2.273
   1.05254  0.00351 -0.00851 -0.90429  0.000312  0.000136  0.048320     2.299
   1.05487  0.00512 -0.01021 -0.97053  0.000359  0.000152  0.042925     2.352
   1.05738  0.00701 -0.01184 -1.01653  0.000408  0.000171  0.038622     2.377
   1.06008  0.00920 -0.01343 -1.04130  0.000481  0.000196  0.031025     2.453
   1.06301  0.01168 -0.01499 -1.06153  0.000531  0.000218  0.029250     2.433
   1.06622  0.01448 -0.01656 -1.07758  0.000593  0.000242  0.026057     2.453
   1.06978  0.01766 -0.01815 -1.08811  0.000665  0.000268  0.022737     2.483
   1.07377  0.02129 -0.01981 -1.10132  0.000711  0.000290  0.022288     2.450
   1.07825  0.02543 -0.02154 -1.11420  0.000769  0.000314  0.020818     2.451
   1.08332  0.03017 -0.02333 -1.12785  0.000824  0.000337  0.019888     2.441
   1.08907  0.03561 -0.02519 -1.14045  0.000889  0.000363  0.018505     2.448
   1.09564  0.04190 -0.02708 -1.15071  0.000967  0.000392  0.016821     2.467
   1.10320  0.04922 -0.02900 -1.15691  0.001069  0.000427  0.014733     2.503
   1.11196  0.05776 -0.03093 -1.15601  0.001216  0.000472  0.011930     2.577
   1.12207  0.06768 -0.03288 -1.15439  0.001341  0.000518  0.010661     2.589
   1.13350  0.07895 -0.03481 -1.15304  0.001461  0.000565  0.009791     2.587
   1.14613  0.09144 -0.03664 -1.15021  0.001604  0.000615  0.008690     2.607
   1.15994  0.10515 -0.03835 -1.14543  0.001770  0.000670  0.007546     2.641
   1.17469  0.11981 -0.03996 -1.14290  0.001882  0.000719  0.007266     2.618
   1.18993  0.13498 -0.04141 -1.14132  0.001993  0.000765  0.006973     2.604
   1.20552  0.15051 -0.04267 -1.13944  0.002116  0.000812  0.006530     2.607
   1.22143  0.16639 -0.04375 -1.13733  0.002242  0.000858  0.006098     2.614
   1.23764  0.18258 -0.04467 -1.13476  0.002374  0.000904  0.005659     2.628
   1.25400  0.19892 -0.04546 -1.13316  0.002475  0.000945  0.005473     2.619
   1.27036  0.21526 -0.04609 -1.13204  0.002568  0.000984  0.005328     2.610
   1.28677  0.23166 -0.04656 -1.13010  0.002688  0.001025  0.005011     2.622
   1.30335  0.24824 -0.04689 -1.12741  0.002824  0.001068  0.004633     2.645
   1.32002  0.26491 -0.04711 -1.12574  0.002917  0.001105  0.004507     2.639
   1.33663  0.28153 -0.04721 -1.12393  0.003019  0.001143  0.004338     2.641
   1.35321  0.29810 -0.04717 -1.12168  0.003136  0.001181  0.004105     2.654
   1.36986  0.31475 -0.04699 -1.11903  0.003264  0.001221  0.003847     2.673
   1.38656  0.33145 -0.04670 -1.11612  0.003397  0.001261  0.003596     2.693
   1.40323  0.34811 -0.04629 -1.11317  0.003526  0.001300  0.003379     2.711
   1.41985  0.36473 -0.04576 -1.10962  0.003681  0.001342  0.003101     2.743
   1.43647  0.38133 -0.04510 -1.10554  0.003860  0.001386  0.002789     2.785
   1.45309  0.39793 -0.04431 -1.10081  0.004075  0.001433  0.002432     2.844
   1.46972  0.41453 -0.04339 -1.09557  0.004325  0.001482  0.002051     2.918
   1.48633  0.43111 -0.04234 -1.08985  0.004626  0.001534  0.001643     3.015
   1.50291  0.44765 -0.04116 -1.08387  0.004984  0.001588  0.001224     3.139
   1.51945  0.46414 -0.03985 -1.07772  0.005444  0.001643  0.000776     3.313
   1.53596  0.48059 -0.03840 -1.07191  0.006000  0.001696  0.000359     3.538
   1.55247  0.49701 -0.03680 -1.06674  0.006692  0.001744 -0.000004     3.836
   1.56903  0.51348 -0.03504 -1.06236  0.007529  0.001787 -0.000266     4.213
   1.58574  0.53008 -0.03313 -1.05857  0.008502  0.001826 -0.000401     4.656
   1.60264  0.54687 -0.03109 -1.05548  0.009592  0.001860 -0.000438     5.157
   1.61973  0.56382 -0.02896 -1.05301  0.010758  0.001889 -0.000431     5.694
   1.63695  0.58089 -0.02675 -1.05105  0.011975  0.001914 -0.000410     6.256
   1.65426  0.59806 -0.02449 -1.04948  0.013221  0.001936 -0.000392     6.830
   1.67164  0.61529 -0.02221 -1.04819  0.014467  0.001954 -0.000379     7.402
   1.68905  0.63255 -0.01994 -1.04709  0.015682  0.001971 -0.000368     7.955
   1.70644  0.64979 -0.01769 -1.04614  0.016854  0.001987 -0.000360     8.483
   1.72377  0.66698 -0.01547 -1.04529  0.017964  0.002001 -0.000354     8.975
   1.74101  0.68409 -0.01330 -1.04450  0.019003  0.002016 -0.000348     9.428
   1.75815  0.70109 -0.01119 -1.04376  0.019946  0.002030 -0.000343     9.828
   1.77520  0.71802 -0.00917 -1.04303  0.020777  0.002044 -0.000339    10.165
   1.79217  0.73488 -0.00723 -1.04229  0.021489  0.002059 -0.000335    10.435
   1.80907  0.75168 -0.00538 -1.04154  0.022063  0.002075 -0.000332    10.631
   1.82588  0.76841 -0.00365 -1.04076  0.022495  0.002093 -0.000328    10.749
   1.84259  0.78504 -0.00203 -1.03992  0.022755  0.002112 -0.000325    10.776
   1.85920  0.80157 -0.00054 -1.03903  0.022834  0.002132 -0.000322    10.708
   1.87568  0.81800  0.00080 -1.03806  0.022702  0.002155 -0.000319    10.533
   1.89204  0.83432  0.00198 -1.03697  0.022332  0.002181 -0.000316    10.240
   1.90829  0.85054  0.00299 -1.03575  0.021676  0.002210 -0.000313     9.809
   1.92442  0.86665  0.00381 -1.03196  0.020702  0.002302 -0.000234     8.995
   1.94041  0.88262  0.00443 -1.00210  0.019652  0.003059 -0.000219     6.425
   1.95619  0.89840  0.00486 -0.97325  0.018276  0.003818 -0.000173     4.787
   1.97170  0.91391  0.00506 -0.94618  0.016703  0.004550  0.000059     3.671
   1.98685  0.92905  0.00502 -0.92776  0.014996  0.005054  0.000465     2.967
   2.00150  0.94370  0.00473 -0.91707  0.013275  0.005344  0.000959     2.484
   2.01546  0.95766  0.00418 -0.91442  0.011612  0.005422  0.001512     2.142
   2.02853  0.97070  0.00337 -0.91979  0.010043  0.005310  0.002141     1.891
   2.04056  0.98268  0.00230 -0.93362  0.008565  0.005035  0.003048     1.701
   2.05143  0.99347  0.00100 -0.95788  0.007138  0.004609  0.004211     1.549
   2.05803  1.00000  0.00000 -0.94601  0.007505  0.004833  0.004027     1.553
   2.05803  1.00010 -0.00002  0.94601  0.065072  0.017455  0.000000     3.728
   2.06467  1.00659 -0.00142  0.93891  0.060229  0.018196  0.000000     3.310
   2.07243  1.01422 -0.00281  0.93371  0.057602  0.018728  0.000000     3.076
   2.08150  1.02317 -0.00428  0.92875  0.054922  0.019231  0.000000     2.856
   2.09210  1.03365 -0.00585  0.92409  0.052108  0.019696  0.000000     2.646
   2.10448  1.04592 -0.00755  0.92004  0.049086  0.020093  0.000000     2.443
   2.11896  1.06027 -0.00939  0.91699  0.045851  0.020385  0.000000     2.249
   2.13587  1.07707 -0.01139  0.91538  0.042440  0.020534  0.000000     2.067
   2.15564  1.09672 -0.01355  0.91563  0.038936  0.020511  0.000000     1.898
   2.17875  1.11971 -0.01590  0.91803  0.035454  0.020307  0.000000     1.746
   2.20575  1.14660 -0.01842  0.92262  0.032129  0.019938  0.000000     1.611
   2.23731  1.17804 -0.02115  0.92909  0.029086  0.019450  0.000000     1.495
   2.27420  1.21481 -0.02408  0.93683  0.026414  0.018901  0.000000     1.397
   2.31730  1.25780 -0.02720  0.94512  0.024150  0.018351  0.000000     1.316
   2.36768  1.30807 -0.03054  0.95328  0.022282  0.017840  0.000000     1.249
   2.42656  1.36684 -0.03407  0.96086  0.020769  0.017391  0.000000     1.194
   2.49537  1.43555 -0.03779  0.96763  0.019559  0.017008  0.000000     1.150
   2.57580  1.51588 -0.04169  0.97353  0.018601  0.016688  0.000000     1.115
   2.66978  1.60978 -0.04574  0.97856  0.017851  0.016423  0.000000     1.087
   2.77963  1.71955 -0.04992  0.98280  0.017270  0.016206  0.000000     1.066
   2.90801  1.84785 -0.05419  0.98630  0.016824  0.016031  0.000000     1.049
   3.05804  1.99783 -0.05850  0.99004  0.016439  0.015847  0.000000     1.037
