#    s        x        y     Ue/Vinf    Dstar     Theta      Cf       H
   0.00000  1.00000  0.00000  1.03553  0.101823  0.010704 -0.000117     9.513
   0.00668  0.99360  0.00192  1.03789  0.098285  0.010428 -0.000120     9.425
   0.01807  0.98272  0.00530  1.04251  0.095267  0.009909 -0.000127     9.615
   0.03106  0.97032  0.00914  1.04815  0.092093  0.009301 -0.000135     9.902
   0.04516  0.95680  0.01317  1.05476  0.088951  0.008620 -0.000146    10.320
   0.06006  0.94246  0.01720  1.06237  0.085921  0.007874 -0.000160    10.912
   0.07565  0.92739  0.02118  1.07118  0.083004  0.007053 -0.000179    11.768
   0.09186  0.91167  0.02516  1.08147  0.080129  0.006147 -0.000205    13.035
   0.10852  0.89549  0.02915  1.09352  0.077214  0.005150 -0.000245    14.994
   0.12544  0.87905  0.03313  1.10805  0.074198  0.004024 -0.000270    18.438
   0.14250  0.86245  0.03708  1.12716  0.070933  0.002642 -0.000279    26.850
   0.15964  0.84577  0.04099  1.13418  0.068258  0.002182 -0.000583    31.278
   0.17681  0.82904  0.04484  1.13423  0.065801  0.002183 -0.000583    30.139
   0.19398  0.81229  0.04864  1.13425  0.063223  0.002186 -0.000583    28.925
   0.21115  0.79553  0.05238  1.13425  0.060557  0.002189 -0.000583    27.658
   0.22833  0.77875  0.05606  1.13424  0.057812  0.002194 -0.000582    26.348
   0.24546  0.76200  0.05967  1.13421  0.055009  0.002200 -0.000582    25.007
   0.26249  0.74535  0.06319  1.13416  0.052177  0.002206 -0.000581    23.653
   0.27941  0.72877  0.06660  1.13411  0.049354  0.002212 -0.000581    22.310
   0.29629  0.71222  0.06990  1.13406  0.046542  0.002218 -0.000580    20.980
   0.31313  0.69568  0.07308  1.13401  0.043747  0.002224 -0.000580    19.668
   0.32994  0.67915  0.07616  1.13398  0.040990  0.002230 -0.000581    18.385
   0.34670  0.66266  0.07911  1.13395  0.038262  0.002234 -0.000581    17.126
   0.36339  0.64620  0.08193  1.13396  0.035593  0.002238 -0.000583    15.905
   0.38005  0.62976  0.08462  1.13401  0.032989  0.002240 -0.000585    14.727
   0.39672  0.61329  0.08718  1.13411  0.030455  0.002240 -0.000588    13.593
   0.41338  0.59681  0.08962  1.13429  0.027985  0.002239 -0.000593    12.499
   0.42997  0.58038  0.09191  1.13456  0.025589  0.002235 -0.000599    11.448
   0.44649  0.56400  0.09406  1.13498  0.023298  0.002229 -0.000607    10.454
   0.46301  0.54760  0.09605  1.13558  0.021112  0.002218 -0.000618     9.517
   0.47954  0.53117  0.09790  1.13643  0.019025  0.002204 -0.000633     8.632
   0.49603  0.51477  0.09961  1.13758  0.017044  0.002186 -0.000653     7.798
   0.51242  0.49845  0.10115  1.13912  0.015186  0.002162 -0.000680     7.024
   0.52875  0.48218  0.10252  1.14121  0.013494  0.002132 -0.000716     6.328
   0.54509  0.46588  0.10371  1.14397  0.011934  0.002096 -0.000760     5.694
   0.56144  0.44957  0.10475  1.14757  0.010511  0.002052 -0.000775     5.121
   0.57774  0.43329  0.10561  1.15217  0.009237  0.002001 -0.000702     4.615
   0.59394  0.41711  0.10630  1.15779  0.008126  0.001944 -0.000449     4.181
   0.61007  0.40098  0.10679  1.16433  0.007168  0.001880  0.000036     3.812
   0.62617  0.38489  0.10708  1.17198  0.006359  0.001810  0.000731     3.514
   0.64227  0.36879  0.10718  1.18053  0.005695  0.001734  0.001564     3.284
   0.65836  0.35270  0.10708  1.18955  0.005137  0.001655  0.002507     3.103
   0.67432  0.33674  0.10680  1.19870  0.004645  0.001576  0.003603     2.947
   0.69010  0.32097  0.10629  1.20693  0.004263  0.001502  0.004629     2.837
   0.70583  0.30526  0.10554  1.21399  0.003957  0.001434  0.005564     2.759
   0.72167  0.28945  0.10454  1.21976  0.003712  0.001371  0.006358     2.708
   0.73747  0.27369  0.10335  1.22513  0.003461  0.001307  0.007360     2.649
   0.75302  0.25820  0.10195  1.22951  0.003216  0.001245  0.008572     2.584
   0.76841  0.24291  0.10027  1.23109  0.003039  0.001192  0.009436     2.549
   0.78386  0.22758  0.09831  1.23063  0.002904  0.001144  0.009993     2.538
   0.79934  0.21226  0.09610  1.22994  0.002751  0.001094  0.010821     2.514
   0.81467  0.19713  0.09366  1.22779  0.002607  0.001045  0.011654     2.494
   0.82983  0.18221  0.09095  1.22403  0.002475  0.000999  0.012432     2.479
   0.84493  0.16741  0.08797  1.21865  0.002356  0.000953  0.013109     2.471
   0.85995  0.15275  0.08473  1.21191  0.002249  0.000909  0.013584     2.476
   0.87475  0.13836  0.08125  1.20525  0.002117  0.000859  0.014524     2.464
   0.88915  0.12444  0.07757  1.19725  0.001961  0.000807  0.016153     2.429
   0.90314  0.11101  0.07364  1.18433  0.001853  0.000763  0.016931     2.428
   0.91683  0.09797  0.06946  1.16992  0.001755  0.000719  0.017424     2.441
   0.92993  0.08560  0.06517  1.15590  0.001628  0.000669  0.018664     2.435
   0.94206  0.07425  0.06087  1.13950  0.001461  0.000616  0.021831     2.373
   0.95332  0.06387  0.05649  1.11287  0.001377  0.000579  0.022534     2.377
   0.96371  0.05444  0.05215  1.08631  0.001305  0.000542  0.022470     2.409
   0.97301  0.04611  0.04801  1.06299  0.001190  0.000497  0.024462     2.395
   0.98119  0.03891  0.04412  1.03605  0.001086  0.000456  0.026518     2.380
   0.98837  0.03273  0.04046  1.00502  0.000989  0.000419  0.028737     2.362
   0.99470  0.02743  0.03701  0.96914  0.000907  0.000386  0.030619     2.348
   1.00030  0.02288  0.03375  0.92863  0.000832  0.000357  0.032547     2.330
   1.00527  0.01898  0.03066  0.88391  0.000774  0.000331  0.033048     2.338
   1.00973  0.01561  0.02774  0.83603  0.000702  0.000304  0.035544     2.306
   1.01375  0.01272  0.02495  0.77847  0.000650  0.000284  0.036189     2.292
   1.01739  0.01024  0.02228  0.71462  0.000607  0.000266  0.036073     2.278
   1.02073  0.00811  0.01971  0.64669  0.000572  0.000250  0.034230     2.289
   1.02380  0.00630  0.01724  0.57716  0.000525  0.000229  0.033069     2.297
   1.02664  0.00476  0.01485  0.48883  0.000473  0.000216  0.034315     2.189
   1.02926  0.00350  0.01255  0.39731  0.000497  0.000214  0.023388     2.326
   1.03171  0.00246  0.01033  0.31046  0.000415  0.000188  0.024391     2.209
   1.03400  0.00163  0.00819  0.20052  0.000429  0.000191  0.014694     2.249
   1.03618  0.00098  0.00612  0.09626  0.000396  0.000178  0.007775     2.230
   1.03826  0.00048  0.00410 -0.01542  0.000396  0.000178  0.001251     2.230
   1.04024  0.00015  0.00214 -0.15191  0.000327  0.000147  0.014979     2.222
   1.04215  0.00001  0.00024 -0.29717  0.000335  0.000149  0.027992     2.245
   1.04400  0.00012 -0.00161 -0.45295  0.000311  0.000141  0.047921     2.198
   1.04587  0.00052 -0.00343 -0.61023  0.000321  0.000142  0.059595     2.254
   1.04780  0.00123 -0.00524 -0.74201  0.000347  0.000153  0.065949     2.269
   1.04986  0.00223 -0.00703 -0.85170  0.000382  0.000167  0.067504     2.289
   1.05205  0.00354 -0.00879 -0.93872  0.000427  0.000184  0.065177     2.314
   1.05438  0.00514 -0.01048 -1.00403  0.000481  0.000205  0.060120     2.343
   1.05689  0.00705 -0.01212 -1.04291  0.000566  0.000234  0.049473     2.415
   1.05960  0.00924 -0.01371 -1.06359  0.000659  0.000268  0.041318     2.461
   1.06254  0.01171 -0.01530 -1.08180  0.000727  0.000298  0.038865     2.442
   1.06576  0.01450 -0.01689 -1.09873  0.000797  0.000327  0.035993     2.441
   1.06931  0.01766 -0.01852 -1.10894  0.000898  0.000361  0.030826     2.486
   1.07328  0.02125 -0.02021 -1.12408  0.000944  0.000388  0.031371     2.433
   1.07773  0.02534 -0.02197 -1.13609  0.001034  0.000421  0.028192     2.459
   1.08275  0.03002 -0.02380 -1.14915  0.001105  0.000452  0.027072     2.445
   1.08845  0.03539 -0.02569 -1.16086  0.001193  0.000486  0.025060     2.455
   1.09493  0.04158 -0.02763 -1.17110  0.001292  0.000524  0.023085     2.466
   1.10237  0.04875 -0.02960 -1.17780  0.001420  0.000568  0.020443     2.497
   1.11095  0.05710 -0.03158 -1.17926  0.001589  0.000623  0.017280     2.550
   1.12083  0.06678 -0.03358 -1.17692  0.001780  0.000686  0.014629     2.595
   1.13204  0.07781 -0.03556 -1.17556  0.001932  0.000747  0.013576     2.588
   1.14448  0.09010 -0.03747 -1.17239  0.002125  0.000814  0.011981     2.611
   1.15809  0.10359 -0.03926 -1.16846  0.002322  0.000883  0.010719     2.628
   1.17266  0.11806 -0.04096 -1.16516  0.002497  0.000951  0.009962     2.626
   1.18781  0.13314 -0.04249 -1.16324  0.002643  0.001013  0.009573     2.610
   1.20335  0.14862 -0.04385 -1.16154  0.002797  0.001073  0.009081     2.605
   1.21923  0.16445 -0.04503 -1.15956  0.002961  0.001134  0.008508     2.611
   1.23540  0.18059 -0.04604 -1.15709  0.003134  0.001195  0.007906     2.623
   1.25175  0.19691 -0.04691 -1.15594  0.003257  0.001248  0.007729     2.609
   1.26813  0.21328 -0.04763 -1.15464  0.003394  0.001301  0.007419     2.608
   1.28457  0.22971 -0.04819 -1.15320  0.003535  0.001354  0.007086     2.611
   1.30115  0.24629 -0.04860 -1.15161  0.003679  0.001406  0.006750     2.617
   1.31783  0.26296 -0.04890 -1.14989  0.003824  0.001457  0.006431     2.625
   1.33448  0.27961 -0.04908 -1.14868  0.003942  0.001504  0.006261     2.621
   1.35110  0.29624 -0.04912 -1.14718  0.004075  0.001552  0.006013     2.626
   1.36778  0.31291 -0.04903 -1.14513  0.004232  0.001602  0.005677     2.641
   1.38450  0.32963 -0.04882 -1.14328  0.004370  0.001650  0.005443     2.648
   1.40120  0.34633 -0.04849 -1.14109  0.004522  0.001699  0.005166     2.662
   1.41786  0.36298 -0.04803 -1.13857  0.004687  0.001749  0.004862     2.680
   1.43449  0.37961 -0.04745 -1.13559  0.004874  0.001801  0.004517     2.706
   1.45114  0.39623 -0.04673 -1.13211  0.005085  0.001855  0.004133     2.741
   1.46777  0.41285 -0.04588 -1.12813  0.005325  0.001912  0.003718     2.785
   1.48439  0.42943 -0.04489 -1.12368  0.005598  0.001972  0.003277     2.838
   1.50097  0.44597 -0.04378 -1.11876  0.005915  0.002035  0.002805     2.906
   1.51751  0.46247 -0.04253 -1.11331  0.006303  0.002102  0.002276     2.999
   1.53401  0.47892 -0.04112 -1.10754  0.006772  0.002171  0.001721     3.119
   1.55050  0.49532 -0.03957 -1.10168  0.007339  0.002242  0.001160     3.274
   1.56702  0.51176 -0.03785 -1.09601  0.008030  0.002311  0.000619     3.475
   1.58368  0.52831 -0.03597 -1.09083  0.008857  0.002376  0.000144     3.728
   1.60055  0.54506 -0.03395 -1.08630  0.009784  0.002434 -0.000204     4.020
   1.61761  0.56199 -0.03181 -1.08230  0.010794  0.002488 -0.000423     4.339
   1.63483  0.57906 -0.02959 -1.07872  0.011863  0.002539 -0.000533     4.673
   1.65218  0.59626 -0.02732 -1.07562  0.012968  0.002585 -0.000571     5.017
   1.66962  0.61355 -0.02500 -1.07294  0.014090  0.002627 -0.000571     5.363
   1.68712  0.63090 -0.02268 -1.07061  0.015200  0.002666 -0.000559     5.701
   1.70462  0.64824 -0.02037 -1.06857  0.016288  0.002702 -0.000540     6.027
   1.72205  0.66552 -0.01809 -1.06675  0.017338  0.002736 -0.000522     6.337
   1.73939  0.68272 -0.01585 -1.06512  0.018340  0.002768 -0.000506     6.626
   1.75663  0.69982 -0.01367 -1.06363  0.019274  0.002798 -0.000494     6.888
   1.77378  0.71684 -0.01156 -1.06223  0.020127  0.002828 -0.000483     7.117
   1.79085  0.73379 -0.00953 -1.06090  0.020889  0.002857 -0.000474     7.311
   1.80784  0.75067 -0.00760 -1.05962  0.021555  0.002886 -0.000466     7.469
   1.82474  0.76746 -0.00576 -1.05837  0.022112  0.002915 -0.000459     7.585
   1.84154  0.78418 -0.00404 -1.05714  0.022550  0.002945 -0.000452     7.658
   1.85823  0.80079 -0.00245 -1.05590  0.022859  0.002975 -0.000447     7.684
   1.87481  0.81731 -0.00100 -1.05464  0.023027  0.003006 -0.000442     7.660
   1.89126  0.83371  0.00030 -1.05336  0.023039  0.003038 -0.000438     7.583
   1.90759  0.85000  0.00143 -1.05202  0.022889  0.003072 -0.000435     7.451
   1.92381  0.86619  0.00238 -1.05063  0.022564  0.003107 -0.000432     7.262
   1.93987  0.88223  0.00314 -1.04916  0.022066  0.003144 -0.000431     7.019
   1.95573  0.89808  0.00370 -1.04762  0.021386  0.003182 -0.000431     6.721
   1.97131  0.91366  0.00404 -1.04599  0.020520  0.003221 -0.000434     6.370
   1.98653  0.92887  0.00415 -1.04428  0.019464  0.003262 -0.000439     5.968
   2.00124  0.94358  0.00401 -1.04251  0.018231  0.003302 -0.000442     5.521
   2.01526  0.95760  0.00361 -1.04073  0.016854  0.003340 -0.000429     5.046
   2.02837  0.97069  0.00296 -1.03904  0.015377  0.003375 -0.000363     4.556
   2.04040  0.98268  0.00205 -1.03757  0.013878  0.003404 -0.000174     4.077
   2.05125  0.99348  0.00090 -1.03668  0.012478  0.003421  0.000181     3.648
   2.05783  1.00000  0.00000 -1.03553  0.013240  0.003443  0.000018     3.845
   2.05783  1.00010 -0.00002  1.03553  0.115063  0.014147  0.000000     8.133
   2.06446  1.00660 -0.00133  1.03143  0.108945  0.014705  0.000000     7.409
   2.07221  1.01424 -0.00263  1.02686  0.105922  0.015316  0.000000     6.916
   2.08127  1.02319 -0.00401  1.02140  0.102877  0.016041  0.000000     6.413
   2.09186  1.03367 -0.00548  1.01481  0.099650  0.016910  0.000000     5.893
   2.10423  1.04595 -0.00706  1.00678  0.096071  0.017964  0.000000     5.348
   2.11869  1.06031 -0.00876  0.99688  0.092024  0.019263  0.000000     4.777
   2.13560  1.07711 -0.01060  0.98434  0.087424  0.020909  0.000000     4.181
   2.15535  1.09677 -0.01259  0.96786  0.082239  0.023088  0.000000     3.562
   2.17845  1.11976 -0.01472  0.95144  0.076221  0.025274  0.000000     3.016
   2.20544  1.14665 -0.01700  0.93817  0.069394  0.027033  0.000000     2.567
   2.23698  1.17811 -0.01944  0.92894  0.062066  0.028230  0.000000     2.199
   2.27386  1.21489 -0.02203  0.92492  0.054665  0.028730  0.000000     1.903
   2.31695  1.25790 -0.02476  0.92644  0.047708  0.028552  0.000000     1.671
   2.36732  1.30819 -0.02762  0.93264  0.041644  0.027878  0.000000     1.494
   2.42619  1.36698 -0.03059  0.94170  0.036709  0.026970  0.000000     1.361
   2.49501  1.43573 -0.03365  0.95162  0.032895  0.026050  0.000000     1.263
   2.57543  1.51609 -0.03675  0.96096  0.030038  0.025242  0.000000     1.190
   2.66944  1.61005 -0.03985  0.96907  0.027934  0.024580  0.000000     1.136
   2.77931  1.71988 -0.04289  0.97580  0.026397  0.024056  0.000000     1.097
   2.90773  1.84826 -0.04579  0.98123  0.025283  0.023648  0.000000     1.069
   3.05782  1.99833 -0.04848  0.98760  0.024317  0.023185  0.000000     1.049
