#    s        x        y     Ue/Vinf    Dstar     Theta      Cf       H
   0.00000  1.00000  0.00000  1.04468  0.090744  0.009194 -0.000137     9.870
   0.00668  0.99360  0.00192  1.04750  0.087215  0.008905 -0.000141     9.794
   0.01807  0.98272  0.00530  1.05307  0.084412  0.008360 -0.000151    10.097
   0.03106  0.97032  0.00914  1.05993  0.081502  0.007718 -0.000164    10.560
   0.04516  0.95680  0.01317  1.06818  0.078641  0.006983 -0.000181    11.261
   0.06006  0.94246  0.01720  1.07789  0.075891  0.006165 -0.000205    12.309
   0.07565  0.92739  0.02118  1.08937  0.073236  0.005254 -0.000241    13.938
   0.09186  0.91167  0.02516  1.10331  0.070565  0.004217 -0.000268    16.735
   0.10852  0.89549  0.02915  1.12124  0.067701  0.002970 -0.000276    22.792
   0.12544  0.87905  0.03313  1.13225  0.065140  0.002272 -0.000560    28.666
   0.14250  0.86245  0.03708  1.13233  0.062982  0.002271 -0.000561    27.730
   0.15964  0.84577  0.04099  1.13239  0.060689  0.002272 -0.000561    26.717
   0.17681  0.82904  0.04484  1.13243  0.058294  0.002273 -0.000562    25.645
   0.19398  0.81229  0.04864  1.13245  0.055823  0.002276 -0.000562    24.531
   0.21115  0.79553  0.05238  1.13246  0.053293  0.002279 -0.000562    23.387
   0.22833  0.77875  0.05606  1.13246  0.050708  0.002283 -0.000562    22.215
   0.24546  0.76200  0.05967  1.13244  0.048078  0.002287 -0.000562    21.022
   0.26249  0.74535  0.06319  1.13243  0.045434  0.002292 -0.000562    19.826
   0.27941  0.72877  0.06660  1.13241  0.042809  0.002296 -0.000563    18.645
   0.29629  0.71222  0.06990  1.13241  0.040206  0.002300 -0.000563    17.482
   0.31313  0.69568  0.07308  1.13242  0.037628  0.002303 -0.000565    16.338
   0.32994  0.67915  0.07616  1.13246  0.035096  0.002305 -0.000567    15.225
   0.34670  0.66266  0.07911  1.13254  0.032604  0.002306 -0.000569    14.137
   0.36339  0.64620  0.08193  1.13268  0.030175  0.002306 -0.000573    13.087
   0.38005  0.62976  0.08462  1.13289  0.027821  0.002303 -0.000577    12.080
   0.39672  0.61329  0.08718  1.13321  0.025545  0.002298 -0.000584    11.116
   0.41338  0.59681  0.08962  1.13366  0.023337  0.002290 -0.000592    10.190
   0.42997  0.58038  0.09191  1.13428  0.021216  0.002280 -0.000603     9.307
   0.44649  0.56400  0.09406  1.13513  0.019205  0.002265 -0.000617     8.479
   0.46301  0.54760  0.09605  1.13628  0.017311  0.002246 -0.000636     7.708
   0.47954  0.53117  0.09790  1.13780  0.015522  0.002222 -0.000662     6.986
   0.49603  0.51477  0.09961  1.13980  0.013838  0.002193 -0.000696     6.311
   0.51242  0.49845  0.10115  1.14242  0.012298  0.002157 -0.000737     5.700
   0.52875  0.48218  0.10252  1.14578  0.010912  0.002115 -0.000753     5.158
   0.54509  0.46588  0.10371  1.15004  0.009665  0.002066 -0.000699     4.677
   0.56144  0.44957  0.10475  1.15526  0.008562  0.002010 -0.000500     4.259
   0.57774  0.43329  0.10561  1.16130  0.007577  0.001950 -0.000088     3.887
   0.59394  0.41711  0.10630  1.16834  0.006743  0.001882  0.000522     3.583
   0.61007  0.40098  0.10679  1.17623  0.006056  0.001809  0.001262     3.347
   0.62617  0.38489  0.10708  1.18468  0.005476  0.001733  0.002111     3.160
   0.64227  0.36879  0.10718  1.19312  0.005005  0.001657  0.002971     3.020
   0.65836  0.35270  0.10708  1.20134  0.004599  0.001583  0.003881     2.905
   0.67432  0.33674  0.10680  1.20916  0.004231  0.001510  0.004903     2.802
   0.69010  0.32097  0.10629  1.21583  0.003927  0.001443  0.005889     2.722
   0.70583  0.30526  0.10554  1.22082  0.003694  0.001382  0.006681     2.672
   0.72167  0.28945  0.10454  1.22438  0.003512  0.001327  0.007264     2.647
   0.73747  0.27369  0.10335  1.22822  0.003292  0.001267  0.008235     2.597
   0.75302  0.25820  0.10195  1.23090  0.003076  0.001210  0.009388     2.543
   0.76841  0.24291  0.10027  1.23065  0.002924  0.001161  0.010142     2.518
   0.78386  0.22758  0.09831  1.22871  0.002799  0.001116  0.010698     2.508
   0.79934  0.21226  0.09610  1.22631  0.002659  0.001069  0.011477     2.488
   0.81467  0.19713  0.09366  1.22237  0.002532  0.001023  0.012194     2.474
   0.82983  0.18221  0.09095  1.21721  0.002404  0.000978  0.013008     2.458
   0.84493  0.16741  0.08797  1.20989  0.002303  0.000936  0.013461     2.460
   0.85995  0.15275  0.08473  1.20235  0.002182  0.000890  0.014243     2.452
   0.87475  0.13836  0.08125  1.19324  0.002065  0.000844  0.015013     2.447
   0.88915  0.12444  0.07757  1.18314  0.001921  0.000794  0.016490     2.418
   0.90314  0.11101  0.07364  1.16857  0.001812  0.000751  0.017357     2.412
   0.91683  0.09797  0.06946  1.15186  0.001724  0.000709  0.017597     2.433
   0.92993  0.08560  0.06517  1.13634  0.001590  0.000658  0.019150     2.417
   0.94206  0.07425  0.06087  1.11676  0.001438  0.000608  0.021890     2.366
   0.95332  0.06387  0.05649  1.08840  0.001360  0.000572  0.022290     2.378
   0.96371  0.05444  0.05215  1.06064  0.001270  0.000532  0.023088     2.385
   0.97301  0.04611  0.04801  1.03323  0.001178  0.000491  0.023983     2.397
   0.98119  0.03891  0.04412  1.00483  0.001056  0.000448  0.027084     2.356
   0.98837  0.03273  0.04046  0.96877  0.000978  0.000415  0.028188     2.356
   0.99470  0.02743  0.03701  0.93092  0.000895  0.000382  0.029956     2.343
   1.00030  0.02288  0.03375  0.88797  0.000819  0.000353  0.031896     2.322
   1.00527  0.01898  0.03066  0.83891  0.000758  0.000328  0.032880     2.311
   1.00973  0.01561  0.02774  0.78639  0.000705  0.000305  0.033018     2.314
   1.01375  0.01272  0.02495  0.73060  0.000646  0.000281  0.033872     2.302
   1.01739  0.01024  0.02228  0.66444  0.000589  0.000261  0.035188     2.257
   1.02073  0.00811  0.01971  0.58983  0.000568  0.000249  0.031668     2.282
   1.02380  0.00630  0.01724  0.51737  0.000521  0.000228  0.030079     2.289
   1.02664  0.00476  0.01485  0.42700  0.000473  0.000216  0.029877     2.191
   1.02926  0.00350  0.01255  0.33472  0.000491  0.000212  0.020127     2.316
   1.03171  0.00246  0.01033  0.24432  0.000405  0.000182  0.019390     2.223
   1.03400  0.00163  0.00819  0.12788  0.000413  0.000185  0.009884     2.231
   1.03618  0.00098  0.00612  0.01870  0.000403  0.000181  0.001483     2.230
   1.03826  0.00048  0.00410 -0.08901  0.000403  0.000181  0.007064     2.230
   1.04024  0.00015  0.00214 -0.23077  0.000319  0.000146  0.023865     2.194
   1.04215  0.00001  0.00024 -0.38575  0.000326  0.000144  0.036778     2.261
   1.04400  0.00012 -0.00161 -0.54770  0.000305  0.000139  0.059492     2.192
   1.04587  0.00052 -0.00343 -0.69797  0.000329  0.000144  0.064729     2.281
   1.04780  0.00123 -0.00524 -0.81967  0.000354  0.000156  0.071607     2.267
   1.04986  0.00223 -0.00703 -0.93534  0.000375  0.000165  0.077252     2.267
   1.05205  0.00354 -0.00879 -1.01862  0.000433  0.000184  0.067703     2.345
   1.05438  0.00514 -0.01048 -1.07368  0.000493  0.000208  0.061092     2.370
   1.05689  0.00705 -0.01212 -1.10731  0.000575  0.000237  0.051077     2.426
   1.05960  0.00924 -0.01371 -1.12307  0.000675  0.000271  0.041427     2.487
   1.06254  0.01171 -0.01530 -1.13678  0.000745  0.000302  0.038779     2.468
   1.06576  0.01450 -0.01689 -1.14941  0.000820  0.000332  0.035633     2.468
   1.06931  0.01766 -0.01852 -1.15684  0.000917  0.000366  0.030848     2.504
   1.07328  0.02125 -0.02021 -1.16612  0.000985  0.000397  0.029714     2.480
   1.07773  0.02534 -0.02197 -1.17580  0.001061  0.000429  0.028006     2.474
   1.08275  0.03002 -0.02380 -1.18696  0.001130  0.000459  0.026971     2.459
   1.08845  0.03539 -0.02569 -1.19525  0.001231  0.000496  0.024321     2.482
   1.09493  0.04158 -0.02763 -1.20192  0.001337  0.000536  0.022172     2.497
   1.10237  0.04875 -0.02960 -1.20569  0.001467  0.000581  0.019669     2.524
   1.11095  0.05710 -0.03158 -1.20529  0.001634  0.000636  0.016787     2.570
   1.12083  0.06678 -0.03358 -1.20065  0.001838  0.000700  0.013951     2.626
   1.13204  0.07781 -0.03556 -1.19644  0.002008  0.000764  0.012683     2.629
   1.14448  0.09010 -0.03747 -1.19144  0.002199  0.000832  0.011326     2.644
   1.15809  0.10359 -0.03926 -1.18508  0.002417  0.000904  0.009907     2.673
   1.17266  0.11806 -0.04096 -1.17992  0.002596  0.000973  0.009243     2.667
   1.18781  0.13314 -0.04249 -1.17627  0.002748  0.001037  0.008893     2.649
   1.20335  0.14862 -0.04385 -1.17271  0.002916  0.001101  0.008359     2.649
   1.21923  0.16445 -0.04503 -1.16938  0.003082  0.001163  0.007874     2.650
   1.23540  0.18059 -0.04604 -1.16561  0.003265  0.001226  0.007289     2.664
   1.25175  0.19691 -0.04691 -1.16286  0.003407  0.001283  0.007037     2.656
   1.26813  0.21328 -0.04763 -1.16025  0.003552  0.001338  0.006749     2.654
   1.28457  0.22971 -0.04819 -1.15757  0.003704  0.001393  0.006421     2.659
   1.30115  0.24629 -0.04860 -1.15463  0.003868  0.001449  0.006053     2.670
   1.31783  0.26296 -0.04890 -1.15156  0.004034  0.001504  0.005702     2.682
   1.33448  0.27961 -0.04908 -1.14921  0.004161  0.001554  0.005546     2.678
   1.35110  0.29624 -0.04912 -1.14645  0.004316  0.001606  0.005272     2.687
   1.36778  0.31291 -0.04903 -1.14319  0.004497  0.001660  0.004916     2.709
   1.38450  0.32963 -0.04882 -1.13984  0.004676  0.001714  0.004599     2.728
   1.40120  0.34633 -0.04849 -1.13638  0.004859  0.001768  0.004300     2.749
   1.41786  0.36298 -0.04803 -1.13229  0.005084  0.001825  0.003904     2.785
   1.43449  0.37961 -0.04745 -1.12799  0.005319  0.001883  0.003529     2.824
   1.45114  0.39623 -0.04673 -1.12311  0.005605  0.001945  0.003081     2.881
   1.46777  0.41285 -0.04588 -1.11776  0.005942  0.002010  0.002592     2.956
   1.48439  0.42943 -0.04489 -1.11218  0.006323  0.002077  0.002107     3.044
   1.50097  0.44597 -0.04378 -1.10625  0.006797  0.002147  0.001569     3.166
   1.51751  0.46247 -0.04253 -1.10040  0.007345  0.002217  0.001056     3.314
   1.53401  0.47892 -0.04112 -1.09472  0.008029  0.002285  0.000541     3.514
   1.55050  0.49532 -0.03957 -1.08959  0.008834  0.002348  0.000096     3.762
   1.56702  0.51176 -0.03785 -1.08511  0.009796  0.002406 -0.000254     4.072
   1.58368  0.52831 -0.03597 -1.08117  0.010900  0.002458 -0.000473     4.434
   1.60055  0.54506 -0.03395 -1.07775  0.012137  0.002507 -0.000571     4.842
   1.61761  0.56199 -0.03181 -1.07490  0.013462  0.002550 -0.000589     5.280
   1.63483  0.57906 -0.02959 -1.07255  0.014858  0.002588 -0.000576     5.742
   1.65218  0.59626 -0.02732 -1.07060  0.016292  0.002621 -0.000551     6.215
   1.66962  0.61355 -0.02500 -1.06896  0.017744  0.002651 -0.000529     6.693
   1.68712  0.63090 -0.02268 -1.06757  0.019189  0.002678 -0.000511     7.165
   1.70462  0.64824 -0.02037 -1.06636  0.020603  0.002703 -0.000498     7.622
   1.72205  0.66552 -0.01809 -1.06530  0.021977  0.002726 -0.000486     8.063
   1.73939  0.68272 -0.01585 -1.06434  0.023294  0.002747 -0.000477     8.479
   1.75663  0.69982 -0.01367 -1.06347  0.024540  0.002768 -0.000469     8.866
   1.77378  0.71684 -0.01156 -1.06265  0.025694  0.002788 -0.000463     9.215
   1.79085  0.73379 -0.00953 -1.06186  0.026755  0.002808 -0.000457     9.527
   1.80784  0.75067 -0.00760 -1.06109  0.027711  0.002829 -0.000451     9.797
   1.82474  0.76746 -0.00576 -1.06034  0.028550  0.002849 -0.000446    10.020
   1.84154  0.78418 -0.00404 -1.05958  0.029268  0.002871 -0.000441    10.196
   1.85823  0.80079 -0.00245 -1.05881  0.029846  0.002893 -0.000437    10.317
   1.87481  0.81731 -0.00100 -1.05802  0.030279  0.002916 -0.000433    10.382
   1.89126  0.83371  0.00030 -1.05721  0.030548  0.002941 -0.000429    10.386
   1.90759  0.85000  0.00143 -1.05635  0.030648  0.002968 -0.000425    10.327
   1.92381  0.86619  0.00238 -1.05544  0.030566  0.002996 -0.000421    10.202
   1.93987  0.88223  0.00314 -1.05449  0.030304  0.003026 -0.000418    10.014
   1.95573  0.89808  0.00370 -1.05347  0.029850  0.003058 -0.000414     9.761
   1.97131  0.91366  0.00404 -1.05238  0.029202  0.003092 -0.000412     9.445
   1.98653  0.92887  0.00415 -1.05123  0.028352  0.003128 -0.000409     9.065
   2.00124  0.94358  0.00401 -1.05000  0.027312  0.003165 -0.000407     8.630
   2.01526  0.95760  0.00361 -1.04872  0.026114  0.003203 -0.000407     8.154
   2.02837  0.97069  0.00296 -1.04740  0.024801  0.003240 -0.000407     7.654
   2.04040  0.98268  0.00205 -1.04610  0.023452  0.003276 -0.000410     7.158
   2.05125  0.99348  0.00090 -1.04486  0.022200  0.003309 -0.000414     6.709
   2.05783  1.00000  0.00000 -1.04468  0.023140  0.003313 -0.000239     6.985
   2.05783  1.00010 -0.00002  1.04468  0.113883  0.012506  0.000000     9.106
   2.06446  1.00660 -0.00134  1.03947  0.107481  0.013189  0.000000     8.149
   2.07221  1.01423 -0.00265  1.03357  0.104349  0.013947  0.000000     7.482
   2.08127  1.02319 -0.00403  1.02653  0.101184  0.014847  0.000000     6.815
   2.09186  1.03367 -0.00552  1.01806  0.097812  0.015926  0.000000     6.142
   2.10423  1.04593 -0.00714  1.00780  0.094052  0.017236  0.000000     5.457
   2.11869  1.06029 -0.00889  0.99515  0.089779  0.018854  0.000000     4.762
   2.13560  1.07709 -0.01078  0.97909  0.084914  0.020927  0.000000     4.058
   2.15535  1.09674 -0.01284  0.95848  0.079419  0.023629  0.000000     3.361
   2.17845  1.11972 -0.01507  0.94066  0.072931  0.025993  0.000000     2.806
   2.20544  1.14660 -0.01748  0.92678  0.065681  0.027826  0.000000     2.360
   2.23698  1.17804 -0.02008  0.91846  0.058050  0.028896  0.000000     2.009
   2.27386  1.21481 -0.02287  0.91664  0.050578  0.029119  0.000000     1.737
   2.31695  1.25780 -0.02586  0.92101  0.043827  0.028619  0.000000     1.531
   2.36732  1.30807 -0.02905  0.92990  0.038195  0.027686  0.000000     1.380
   2.42619  1.36685 -0.03244  0.94087  0.033796  0.026627  0.000000     1.269
   2.49501  1.43556 -0.03601  0.95186  0.030510  0.025648  0.000000     1.190
   2.57543  1.51590 -0.03976  0.96169  0.028116  0.024828  0.000000     1.132
   2.66944  1.60983 -0.04367  0.96997  0.026395  0.024175  0.000000     1.092
   2.77931  1.71962 -0.04772  0.97670  0.025167  0.023666  0.000000     1.063
   2.90773  1.84797 -0.05187  0.98206  0.024294  0.023274  0.000000     1.044
   3.05782  1.99801 -0.05608  0.98782  0.023559  0.022864  0.000000     1.030
